'Elapsed time','V1'
'hh:mm:ss.mmm','mV'
'23:40.000',0.175
'23:40.003',0.185
'23:40.006',0.195
'23:40.008',0.200
'23:40.011',0.205
'23:40.014',0.200
'23:40.017',0.185
'23:40.019',0.180
'23:40.022',0.155
'23:40.025',0.145
'23:40.028',0.130
'23:40.031',0.125
'23:40.033',0.130
'23:40.036',0.120
'23:40.039',0.115
'23:40.042',0.110
'23:40.044',0.120
'23:40.047',0.115
'23:40.050',0.110
'23:40.053',0.105
'23:40.056',0.105
'23:40.058',0.095
'23:40.061',0.080
'23:40.064',0.105
'23:40.067',0.105
'23:40.069',0.125
'23:40.072',0.135
'23:40.075',0.130
'23:40.078',0.150
'23:40.081',0.135
'23:40.083',0.125
'23:40.086',0.110
'23:40.089',0.100
'23:40.092',0.105
'23:40.094',0.100
'23:40.097',0.105
'23:40.100',0.110
'23:40.103',0.125
'23:40.106',0.125
'23:40.108',0.120
'23:40.111',0.120
'23:40.114',0.120
'23:40.117',0.115
'23:40.119',0.110
'23:40.122',0.090
'23:40.125',0.105
'23:40.128',0.105
'23:40.131',0.110
'23:40.133',0.125
'23:40.136',0.125
'23:40.139',0.130
'23:40.142',0.120
'23:40.144',0.120
'23:40.147',0.115
'23:40.150',0.110
'23:40.153',0.110
'23:40.156',0.110
'23:40.158',0.105
'23:40.161',0.115
'23:40.164',0.130
'23:40.167',0.155
'23:40.169',0.180
'23:40.172',0.220
'23:40.175',0.255
'23:40.178',0.275
'23:40.181',0.260
'23:40.183',0.240
'23:40.186',0.200
'23:40.189',0.155
'23:40.192',0.075
'23:40.194',0.015
'23:40.197',-0.040
'23:40.200',-0.060
'23:40.203',-0.060
'23:40.206',-0.045
'23:40.208',-0.040
'23:40.211',-0.010
'23:40.214',0.005
'23:40.217',0.015
'23:40.219',0.055
'23:40.222',0.140
'23:40.225',0.270
'23:40.228',0.430
'23:40.231',0.595
'23:40.233',0.720
'23:40.236',0.810
'23:40.239',0.890
'23:40.242',0.935
'23:40.244',0.965
'23:40.247',0.995
'23:40.250',1.010
'23:40.253',1.010
'23:40.256',0.975
'23:40.258',0.935
'23:40.261',0.870
'23:40.264',0.790
'23:40.267',0.710
'23:40.269',0.625
'23:40.272',0.530
'23:40.275',0.430
'23:40.278',0.350
'23:40.281',0.275
'23:40.283',0.215
'23:40.286',0.170
'23:40.289',0.155
'23:40.292',0.125
'23:40.294',0.125
'23:40.297',0.130
'23:40.300',0.120
'23:40.303',0.120
'23:40.306',0.105
'23:40.308',0.100
'23:40.311',0.095
'23:40.314',0.090
'23:40.317',0.085
'23:40.319',0.070
'23:40.322',0.065
'23:40.325',0.070
'23:40.328',0.065
'23:40.331',0.060
'23:40.333',0.065
'23:40.336',0.065
'23:40.339',0.075
'23:40.342',0.065
'23:40.344',0.060
'23:40.347',0.060
'23:40.350',0.065
'23:40.353',0.055
'23:40.356',0.045
'23:40.358',0.025
'23:40.361',0.040
'23:40.364',0.040
'23:40.367',0.045
'23:40.369',0.055
'23:40.372',0.075
'23:40.375',0.060
'23:40.378',0.060
'23:40.381',0.075
'23:40.383',0.050
'23:40.386',0.050
'23:40.389',0.035
'23:40.392',0.035
'23:40.394',0.035
'23:40.397',0.040
'23:40.400',0.055
'23:40.403',0.060
'23:40.406',0.050
'23:40.408',0.055
'23:40.411',0.035
'23:40.414',0.045
'23:40.417',0.035
'23:40.419',0.030
'23:40.422',0.020
'23:40.425',0.020
'23:40.428',0.015
'23:40.431',0.025
'23:40.433',0.025
'23:40.436',0.035
'23:40.439',0.040
'23:40.442',0.040
'23:40.444',0.035
'23:40.447',0.020
'23:40.450',0.015
'23:40.453',0.015
'23:40.456',0.005
'23:40.458',0.000
'23:40.461',0.000
'23:40.464',-0.005
'23:40.467',0.005
'23:40.469',0.005
'23:40.472',0.005
'23:40.475',0.020
'23:40.478',0.010
'23:40.481',0.000
'23:40.483',-0.005
'23:40.486',-0.020
'23:40.489',-0.025
'23:40.492',-0.020
'23:40.494',-0.035
'23:40.497',-0.020
'23:40.500',-0.010
'23:40.503',-0.030
'23:40.506',-0.025
'23:40.508',-0.025
'23:40.511',-0.035
'23:40.514',-0.035
'23:40.517',-0.045
'23:40.519',-0.065
'23:40.522',-0.065
'23:40.525',-0.065
'23:40.528',-0.070
'23:40.531',-0.080
'23:40.533',-0.085
'23:40.536',-0.095
'23:40.539',-0.075
'23:40.542',-0.090
'23:40.544',-0.100
'23:40.547',-0.110
'23:40.550',-0.120
'23:40.553',-0.125
'23:40.556',-0.140
'23:40.558',-0.155
'23:40.561',-0.135
'23:40.564',-0.145
'23:40.567',-0.130
'23:40.569',-0.125
'23:40.572',-0.120
'23:40.575',-0.125
'23:40.578',-0.130
'23:40.581',-0.130
'23:40.583',-0.140
'23:40.586',-0.145
'23:40.589',-0.150
'23:40.592',-0.155
'23:40.594',-0.150
'23:40.597',-0.145
'23:40.600',-0.135
'23:40.603',-0.130
'23:40.606',-0.110
'23:40.608',-0.110
'23:40.611',-0.120
'23:40.614',-0.105
'23:40.617',-0.105
'23:40.619',-0.105
'23:40.622',-0.090
'23:40.625',-0.095
'23:40.628',-0.090
'23:40.631',-0.075
'23:40.633',-0.055
'23:40.636',-0.035
'23:40.639',-0.030
'23:40.642',-0.015
'23:40.644',-0.005
'23:40.647',-0.005
'23:40.650',-0.010
'23:40.653',-0.010
'23:40.656',-0.005
'23:40.658',0.005
'23:40.661',0.005
'23:40.664',0.035
'23:40.667',0.030
'23:40.669',0.055
'23:40.672',0.065
'23:40.675',0.070
'23:40.678',0.075
'23:40.681',0.085
'23:40.683',0.080
'23:40.686',0.090
'23:40.689',0.080
'23:40.692',0.075
'23:40.694',0.075
'23:40.697',0.095
'23:40.700',0.110
'23:40.703',0.115
'23:40.706',0.115
'23:40.708',0.120
'23:40.711',0.115
'23:40.714',0.110
'23:40.717',0.110
'23:40.719',0.105
'23:40.722',0.100
'23:40.725',0.090
'23:40.728',0.105
'23:40.731',0.110
'23:40.733',0.100
'23:40.736',0.110
'23:40.739',0.125
'23:40.742',0.125
'23:40.744',0.125
'23:40.747',0.120
'23:40.750',0.110
'23:40.753',0.105
'23:40.756',0.100
'23:40.758',0.090
'23:40.761',0.100
'23:40.764',0.110
'23:40.767',0.105
'23:40.769',0.120
'23:40.772',0.120
'23:40.775',0.125
'23:40.778',0.120
'23:40.781',0.130
'23:40.783',0.125
'23:40.786',0.110
'23:40.789',0.115
'23:40.792',0.110
'23:40.794',0.110
'23:40.797',0.115
'23:40.800',0.130
'23:40.803',0.135
'23:40.806',0.130
'23:40.808',0.130
'23:40.811',0.130
'23:40.814',0.120
'23:40.817',0.120
'23:40.819',0.120
'23:40.822',0.115
'23:40.825',0.105
'23:40.828',0.115
'23:40.831',0.115
'23:40.833',0.115
'23:40.836',0.110
'23:40.839',0.125
'23:40.842',0.130
'23:40.844',0.125
'23:40.847',0.130
'23:40.850',0.130
'23:40.853',0.120
'23:40.856',0.110
'23:40.858',0.110
'23:40.861',0.105
'23:40.864',0.115
'23:40.867',0.120
'23:40.869',0.125
'23:40.872',0.140
'23:40.875',0.130
'23:40.878',0.135
'23:40.881',0.125
'23:40.883',0.115
'23:40.886',0.105
'23:40.889',0.115
'23:40.892',0.105
'23:40.894',0.105
'23:40.897',0.115
'23:40.900',0.115
'23:40.903',0.115
'23:40.906',0.130
'23:40.908',0.135
'23:40.911',0.125
'23:40.914',0.125
'23:40.917',0.110
'23:40.919',0.110
'23:40.922',0.095
'23:40.925',0.105
'23:40.928',0.105
'23:40.931',0.105
'23:40.933',0.115
'23:40.936',0.115
'23:40.939',0.130
'23:40.942',0.120
'23:40.944',0.120
'23:40.947',0.125
'23:40.950',0.105
'23:40.953',0.095
'23:40.956',0.120
'23:40.958',0.100
'23:40.961',0.100
'23:40.964',0.110
'23:40.967',0.110
'23:40.969',0.125
'23:40.972',0.140
'23:40.975',0.145
'23:40.978',0.150
'23:40.981',0.150
'23:40.983',0.155
'23:40.986',0.160
'23:40.989',0.160
'23:40.992',0.165
'23:40.994',0.165
'23:40.997',0.180
'23:41.000',0.185
'23:41.003',0.190
'23:41.006',0.175
'23:41.008',0.160
'23:41.011',0.160
'23:41.014',0.135
'23:41.017',0.105
'23:41.019',0.090
'23:41.022',0.085
'23:41.025',0.080
'23:41.028',0.070
'23:41.031',0.085
'23:41.033',0.090
'23:41.036',0.100
'23:41.039',0.100
'23:41.042',0.110
'23:41.044',0.095
'23:41.047',0.095
'23:41.050',0.075
'23:41.053',0.070
'23:41.056',0.065
'23:41.058',0.080
'23:41.061',0.085
'23:41.064',0.100
'23:41.067',0.120
'23:41.069',0.120
'23:41.072',0.125
'23:41.075',0.110
'23:41.078',0.100
'23:41.081',0.095
'23:41.083',0.085
'23:41.086',0.085
'23:41.089',0.075
'23:41.092',0.070
'23:41.094',0.075
'23:41.097',0.085
'23:41.100',0.100
'23:41.103',0.115
'23:41.106',0.100
'23:41.108',0.100
'23:41.111',0.105
'23:41.114',0.095
'23:41.117',0.090
'23:41.119',0.085
'23:41.122',0.095
'23:41.125',0.085
'23:41.128',0.090
'23:41.131',0.100
'23:41.133',0.100
'23:41.136',0.125
'23:41.139',0.120
'23:41.142',0.130
'23:41.144',0.120
'23:41.147',0.120
'23:41.150',0.110
'23:41.153',0.120
'23:41.156',0.115
'23:41.158',0.140
'23:41.161',0.165
'23:41.164',0.205
'23:41.167',0.255
'23:41.169',0.265
'23:41.172',0.270
'23:41.175',0.245
'23:41.178',0.205
'23:41.181',0.130
'23:41.183',0.085
'23:41.186',0.015
'23:41.189',-0.045
'23:41.192',-0.070
'23:41.194',-0.075
'23:41.197',-0.060
'23:41.200',-0.050
'23:41.203',-0.020
'23:41.206',-0.015
'23:41.208',-0.005
'23:41.211',0.080
'23:41.214',0.185
'23:41.217',0.340
'23:41.219',0.510
'23:41.222',0.660
'23:41.225',0.765
'23:41.228',0.865
'23:41.231',0.915
'23:41.233',0.945
'23:41.236',0.985
'23:41.239',1.020
'23:41.242',1.020
'23:41.244',1.010
'23:41.247',0.955
'23:41.250',0.885
'23:41.253',0.830
'23:41.256',0.740
'23:41.258',0.635
'23:41.261',0.535
'23:41.264',0.445
'23:41.267',0.360
'23:41.269',0.290
'23:41.272',0.245
'23:41.275',0.215
'23:41.278',0.195
'23:41.281',0.190
'23:41.283',0.170
'23:41.286',0.165
'23:41.289',0.145
'23:41.292',0.140
'23:41.294',0.140
'23:41.297',0.130
'23:41.300',0.125
'23:41.303',0.135
'23:41.306',0.140
'23:41.308',0.135
'23:41.311',0.125
'23:41.314',0.115
'23:41.317',0.105
'23:41.319',0.100
'23:41.322',0.085
'23:41.325',0.080
'23:41.328',0.085
'23:41.331',0.095
'23:41.333',0.095
'23:41.336',0.105
'23:41.339',0.105
'23:41.342',0.090
'23:41.344',0.095
'23:41.347',0.085
'23:41.350',0.085
'23:41.353',0.090
'23:41.356',0.080
'23:41.358',0.080
'23:41.361',0.060
'23:41.364',0.080
'23:41.367',0.085
'23:41.369',0.100
'23:41.372',0.105
'23:41.375',0.090
'23:41.378',0.080
'23:41.381',0.085
'23:41.383',0.070
'23:41.386',0.070
'23:41.389',0.070
'23:41.392',0.065
'23:41.394',0.065
'23:41.397',0.060
'23:41.400',0.075
'23:41.403',0.075
'23:41.406',0.085
'23:41.408',0.075
'23:41.411',0.070
'23:41.414',0.070
'23:41.417',0.050
'23:41.419',0.045
'23:41.422',0.050
'23:41.425',0.050
'23:41.428',0.045
'23:41.431',0.055
'23:41.433',0.055
'23:41.436',0.045
'23:41.439',0.060
'23:41.442',0.060
'23:41.444',0.055
'23:41.447',0.040
'23:41.450',0.030
'23:41.453',0.020
'23:41.456',0.025
'23:41.458',0.025
'23:41.461',0.030
'23:41.464',0.035
'23:41.467',0.030
'23:41.469',0.030
'23:41.472',0.025
'23:41.475',0.025
'23:41.478',0.025
'23:41.481',0.025
'23:41.483',0.015
'23:41.486',0.010
'23:41.489',0.000
'23:41.492',0.010
'23:41.494',0.000
'23:41.497',0.000
'23:41.500',0.005
'23:41.503',0.000
'23:41.506',0.005
'23:41.508',0.005
'23:41.511',0.000
'23:41.514',0.000
'23:41.517',-0.020
'23:41.519',-0.030
'23:41.522',-0.030
'23:41.525',-0.040
'23:41.528',-0.035
'23:41.531',-0.045
'23:41.533',-0.040
'23:41.536',-0.040
'23:41.539',-0.025
'23:41.542',-0.035
'23:41.544',-0.055
'23:41.547',-0.060
'23:41.550',-0.070
'23:41.553',-0.080
'23:41.556',-0.085
'23:41.558',-0.100
'23:41.561',-0.100
'23:41.564',-0.095
'23:41.567',-0.080
'23:41.569',-0.080
'23:41.572',-0.080
'23:41.575',-0.100
'23:41.578',-0.100
'23:41.581',-0.100
'23:41.583',-0.110
'23:41.586',-0.125
'23:41.589',-0.120
'23:41.592',-0.130
'23:41.594',-0.130
'23:41.597',-0.130
'23:41.600',-0.130
'23:41.603',-0.115
'23:41.606',-0.100
'23:41.608',-0.110
'23:41.611',-0.105
'23:41.614',-0.110
'23:41.617',-0.115
'23:41.619',-0.110
'23:41.622',-0.105
'23:41.625',-0.095
'23:41.628',-0.100
'23:41.631',-0.085
'23:41.633',-0.090
'23:41.636',-0.065
'23:41.639',-0.050
'23:41.642',-0.050
'23:41.644',-0.050
'23:41.647',-0.045
'23:41.650',-0.055
'23:41.653',-0.040
'23:41.656',-0.035
'23:41.658',-0.035
'23:41.661',-0.035
'23:41.664',-0.025
'23:41.667',0.000
'23:41.669',0.015
'23:41.672',0.015
'23:41.675',0.035
'23:41.678',0.025
'23:41.681',0.015
'23:41.683',0.025
'23:41.686',0.020
'23:41.689',0.020
'23:41.692',0.045
'23:41.694',0.045
'23:41.697',0.050
'23:41.700',0.055
'23:41.703',0.070
'23:41.706',0.070
'23:41.708',0.080
'23:41.711',0.085
'23:41.714',0.085
'23:41.717',0.085
'23:41.719',0.080
'23:41.722',0.080
'23:41.725',0.075
'23:41.728',0.085
'23:41.731',0.100
'23:41.733',0.110
'23:41.736',0.120
'23:41.739',0.125
'23:41.742',0.130
'23:41.744',0.125
'23:41.747',0.120
'23:41.750',0.110
'23:41.753',0.105
'23:41.756',0.110
'23:41.758',0.115
'23:41.761',0.110
'23:41.764',0.115
'23:41.767',0.130
'23:41.769',0.135
'23:41.772',0.135
'23:41.775',0.135
'23:41.778',0.130
'23:41.781',0.130
'23:41.783',0.125
'23:41.786',0.110
'23:41.789',0.105
'23:41.792',0.110
'23:41.794',0.110
'23:41.797',0.115
'23:41.800',0.135
'23:41.803',0.130
'23:41.806',0.130
'23:41.808',0.130
'23:41.811',0.130
'23:41.814',0.135
'23:41.817',0.130
'23:41.819',0.130
'23:41.822',0.115
'23:41.825',0.115
'23:41.828',0.105
'23:41.831',0.110
'23:41.833',0.120
'23:41.836',0.120
'23:41.839',0.140
'23:41.842',0.145
'23:41.844',0.125
'23:41.847',0.135
'23:41.850',0.125
'23:41.853',0.115
'23:41.856',0.100
'23:41.858',0.115
'23:41.861',0.110
'23:41.864',0.120
'23:41.867',0.130
'23:41.869',0.135
'23:41.872',0.135
'23:41.875',0.140
'23:41.878',0.130
'23:41.881',0.130
'23:41.883',0.110
'23:41.886',0.120
'23:41.889',0.115
'23:41.892',0.100
'23:41.894',0.110
'23:41.897',0.100
'23:41.900',0.110
'23:41.903',0.115
'23:41.906',0.125
'23:41.908',0.120
'23:41.911',0.130
'23:41.914',0.125
'23:41.917',0.110
'23:41.919',0.110
'23:41.922',0.095
'23:41.925',0.105
'23:41.928',0.110
'23:41.931',0.110
'23:41.933',0.120
'23:41.936',0.125
'23:41.939',0.135
'23:41.942',0.140
'23:41.944',0.125
'23:41.947',0.110
'23:41.950',0.120
'23:41.953',0.110
'23:41.956',0.105
'23:41.958',0.115
'23:41.961',0.115
'23:41.964',0.125
'23:41.967',0.125
'23:41.969',0.130
'23:41.972',0.135
'23:41.975',0.135
'23:41.978',0.125
'23:41.981',0.130
'23:41.983',0.125
'23:41.986',0.110
'23:41.989',0.120
'23:41.992',0.120
'23:41.994',0.120
'23:41.997',0.130
'23:42.000',0.135
'23:42.003',0.125
'23:42.006',0.135
'23:42.008',0.135
'23:42.011',0.130
'23:42.014',0.140
'23:42.017',0.135
'23:42.019',0.145
'23:42.022',0.145
'23:42.025',0.145
'23:42.028',0.165
'23:42.031',0.180
'23:42.033',0.180
'23:42.036',0.190
'23:42.039',0.195
'23:42.042',0.205
'23:42.044',0.195
'23:42.047',0.170
'23:42.050',0.150
'23:42.053',0.130
'23:42.056',0.120
'23:42.058',0.105
'23:42.061',0.120
'23:42.064',0.105
'23:42.067',0.100
'23:42.069',0.105
'23:42.072',0.115
'23:42.075',0.130
'23:42.078',0.135
'23:42.081',0.115
'23:42.083',0.105
'23:42.086',0.105
'23:42.089',0.090
'23:42.092',0.095
'23:42.094',0.105
'23:42.097',0.125
'23:42.100',0.140
'23:42.103',0.135
'23:42.106',0.140
'23:42.108',0.130
'23:42.111',0.120
'23:42.114',0.130
'23:42.117',0.100
'23:42.119',0.110
'23:42.122',0.115
'23:42.125',0.105
'23:42.128',0.105
'23:42.131',0.110
'23:42.133',0.120
'23:42.136',0.130
'23:42.139',0.155
'23:42.142',0.150
'23:42.144',0.150
'23:42.147',0.145
'23:42.150',0.135
'23:42.153',0.110
'23:42.156',0.115
'23:42.158',0.120
'23:42.161',0.110
'23:42.164',0.130
'23:42.167',0.130
'23:42.169',0.140
'23:42.172',0.150
'23:42.175',0.165
'23:42.178',0.150
'23:42.181',0.160
'23:42.183',0.150
'23:42.186',0.165
'23:42.189',0.190
'23:42.192',0.215
'23:42.194',0.250
'23:42.197',0.270
'23:42.200',0.275
'23:42.203',0.255
'23:42.206',0.220
'23:42.208',0.145
'23:42.211',0.065
'23:42.214',-0.010
'23:42.217',-0.055
'23:42.219',-0.060
'23:42.222',-0.025
'23:42.225',0.030
'23:42.228',0.075
'23:42.231',0.105
'23:42.233',0.135
'23:42.236',0.175
'23:42.239',0.280
'23:42.242',0.410
'23:42.244',0.555
'23:42.247',0.710
'23:42.250',0.810
'23:42.253',0.900
'23:42.256',0.950
'23:42.258',0.985
'23:42.261',1.000
'23:42.264',1.045
'23:42.267',1.050
'23:42.269',1.040
'23:42.272',0.995
'23:42.275',0.950
'23:42.278',0.870
'23:42.281',0.810
'23:42.283',0.710
'23:42.286',0.615
'23:42.289',0.495
'23:42.292',0.370
'23:42.294',0.280
'23:42.297',0.230
'23:42.300',0.215
'23:42.303',0.200
'23:42.306',0.205
'23:42.308',0.200
'23:42.311',0.185
'23:42.314',0.180
'23:42.317',0.155
'23:42.319',0.135
'23:42.322',0.130
'23:42.325',0.120
'23:42.328',0.125
'23:42.331',0.125
'23:42.333',0.140
'23:42.336',0.145
'23:42.339',0.150
'23:42.342',0.140
'23:42.344',0.135
'23:42.347',0.125
'23:42.350',0.115
'23:42.353',0.120
'23:42.356',0.095
'23:42.358',0.090
'23:42.361',0.095
'23:42.364',0.095
'23:42.367',0.095
'23:42.369',0.125
'23:42.372',0.125
'23:42.375',0.130
'23:42.378',0.120
'23:42.381',0.105
'23:42.383',0.110
'23:42.386',0.095
'23:42.389',0.105
'23:42.392',0.095
'23:42.394',0.080
'23:42.397',0.080
'23:42.400',0.095
'23:42.403',0.100
'23:42.406',0.105
'23:42.408',0.105
'23:42.411',0.105
'23:42.414',0.090
'23:42.417',0.095
'23:42.419',0.095
'23:42.422',0.085
'23:42.425',0.085
'23:42.428',0.070
'23:42.431',0.065
'23:42.433',0.070
'23:42.436',0.085
'23:42.439',0.080
'23:42.442',0.080
'23:42.444',0.080
'23:42.447',0.075
'23:42.450',0.070
'23:42.453',0.060
'23:42.456',0.060
'23:42.458',0.055
'23:42.461',0.050
'23:42.464',0.055
'23:42.467',0.070
'23:42.469',0.065
'23:42.472',0.085
'23:42.475',0.085
'23:42.478',0.060
'23:42.481',0.060
'23:42.483',0.030
'23:42.486',0.045
'23:42.489',0.035
'23:42.492',0.040
'23:42.494',0.020
'23:42.497',0.030
'23:42.500',0.030
'23:42.503',0.030
'23:42.506',0.045
'23:42.508',0.035
'23:42.511',0.040
'23:42.514',0.025
'23:42.517',0.025
'23:42.519',0.000
'23:42.522',-0.010
'23:42.525',-0.005
'23:42.528',0.000
'23:42.531',-0.005
'23:42.533',-0.005
'23:42.536',0.000
'23:42.539',0.010
'23:42.542',0.000
'23:42.544',-0.015
'23:42.547',-0.015
'23:42.550',-0.025
'23:42.553',-0.045
'23:42.556',-0.060
'23:42.558',-0.065
'23:42.561',-0.075
'23:42.564',-0.070
'23:42.567',-0.070
'23:42.569',-0.070
'23:42.572',-0.060
'23:42.575',-0.075
'23:42.578',-0.060
'23:42.581',-0.075
'23:42.583',-0.080
'23:42.586',-0.105
'23:42.589',-0.100
'23:42.592',-0.100
'23:42.594',-0.110
'23:42.597',-0.105
'23:42.600',-0.100
'23:42.603',-0.095
'23:42.606',-0.080
'23:42.608',-0.080
'23:42.611',-0.085
'23:42.614',-0.090
'23:42.617',-0.090
'23:42.619',-0.095
'23:42.622',-0.085
'23:42.625',-0.080
'23:42.628',-0.075
'23:42.631',-0.045
'23:42.633',-0.045
'23:42.636',-0.035
'23:42.639',-0.020
'23:42.642',-0.010
'23:42.644',-0.005
'23:42.647',-0.005
'23:42.650',-0.015
'23:42.653',-0.005
'23:42.656',-0.005
'23:42.658',0.005
'23:42.661',0.005
'23:42.664',0.025
'23:42.667',0.035
'23:42.669',0.040
'23:42.672',0.050
'23:42.675',0.060
'23:42.678',0.075
'23:42.681',0.075
'23:42.683',0.075
'23:42.686',0.085
'23:42.689',0.075
'23:42.692',0.085
'23:42.694',0.100
'23:42.697',0.115
'23:42.700',0.125
'23:42.703',0.140
'23:42.706',0.150
'23:42.708',0.160
'23:42.711',0.155
'23:42.714',0.165
'23:42.717',0.155
'23:42.719',0.155
'23:42.722',0.155
'23:42.725',0.150
'23:42.728',0.160
'23:42.731',0.165
'23:42.733',0.175
'23:42.736',0.175
'23:42.739',0.185
'23:42.742',0.185
'23:42.744',0.185
'23:42.747',0.180
'23:42.750',0.170
'23:42.753',0.180
'23:42.756',0.170
'23:42.758',0.170
'23:42.761',0.160
'23:42.764',0.170
'23:42.767',0.170
'23:42.769',0.180
'23:42.772',0.195
'23:42.775',0.195
'23:42.778',0.185
'23:42.781',0.195
'23:42.783',0.170
'23:42.786',0.170
'23:42.789',0.170
'23:42.792',0.175
'23:42.794',0.170
'23:42.797',0.170
'23:42.800',0.175
'23:42.803',0.185
'23:42.806',0.195
'23:42.808',0.190
'23:42.811',0.190
'23:42.814',0.180
'23:42.817',0.170
'23:42.819',0.175
'23:42.822',0.160
'23:42.825',0.155
'23:42.828',0.175
'23:42.831',0.160
'23:42.833',0.185
'23:42.836',0.185
'23:42.839',0.200
'23:42.842',0.190
'23:42.844',0.195
'23:42.847',0.190
'23:42.850',0.180
'23:42.853',0.170
'23:42.856',0.165
'23:42.858',0.165
'23:42.861',0.160
'23:42.864',0.170
'23:42.867',0.170
'23:42.869',0.195
'23:42.872',0.195
'23:42.875',0.190
'23:42.878',0.195
'23:42.881',0.185
'23:42.883',0.180
'23:42.886',0.175
'23:42.889',0.170
'23:42.892',0.155
'23:42.894',0.155
'23:42.897',0.165
'23:42.900',0.165
'23:42.903',0.170
'23:42.906',0.190
'23:42.908',0.175
'23:42.911',0.175
'23:42.914',0.170
'23:42.917',0.160
'23:42.919',0.155
'23:42.922',0.150
'23:42.925',0.150
'23:42.928',0.150
'23:42.931',0.160
'23:42.933',0.170
'23:42.936',0.185
'23:42.939',0.170
'23:42.942',0.185
'23:42.944',0.185
'23:42.947',0.175
'23:42.950',0.175
'23:42.953',0.165
'23:42.956',0.175
'23:42.958',0.170
'23:42.961',0.185
'23:42.964',0.190
'23:42.967',0.210
'23:42.969',0.200
'23:42.972',0.220
'23:42.975',0.220
'23:42.978',0.205
'23:42.981',0.200
'23:42.983',0.180
'23:42.986',0.160
'23:42.989',0.155
'23:42.992',0.135
'23:42.994',0.135
'23:42.997',0.125
'23:43.000',0.125
'23:43.003',0.130
'23:43.006',0.135
'23:43.008',0.140
'23:43.011',0.135
'23:43.014',0.135
'23:43.017',0.125
'23:43.019',0.120
'23:43.022',0.120
'23:43.025',0.125
'23:43.028',0.130
'23:43.031',0.135
'23:43.033',0.160
'23:43.036',0.155
'23:43.039',0.170
'23:43.042',0.160
'23:43.044',0.150
'23:43.047',0.150
'23:43.050',0.140
'23:43.053',0.125
'23:43.056',0.125
'23:43.058',0.125
'23:43.061',0.135
'23:43.064',0.130
'23:43.067',0.140
'23:43.069',0.135
'23:43.072',0.150
'23:43.075',0.150
'23:43.078',0.150
'23:43.081',0.145
'23:43.083',0.140
'23:43.086',0.125
'23:43.089',0.120
'23:43.092',0.115
'23:43.094',0.130
'23:43.097',0.130
'23:43.100',0.135
'23:43.103',0.140
'23:43.106',0.145
'23:43.108',0.150
'23:43.111',0.150
'23:43.114',0.150
'23:43.117',0.145
'23:43.119',0.140
'23:43.122',0.130
'23:43.125',0.145
'23:43.128',0.145
'23:43.131',0.165
'23:43.133',0.200
'23:43.136',0.230
'23:43.139',0.270
'23:43.142',0.295
'23:43.144',0.300
'23:43.147',0.280
'23:43.150',0.250
'23:43.153',0.195
'23:43.156',0.135
'23:43.158',0.070
'23:43.161',0.010
'23:43.164',-0.035
'23:43.167',-0.050
'23:43.169',-0.035
'23:43.172',-0.010
'23:43.175',0.020
'23:43.178',0.035
'23:43.181',0.040
'23:43.183',0.060
'23:43.186',0.100
'23:43.189',0.200
'23:43.192',0.340
'23:43.194',0.505
'23:43.197',0.650
'23:43.200',0.770
'23:43.203',0.860
'23:43.206',0.920
'23:43.208',0.960
'23:43.211',1.005
'23:43.214',1.030
'23:43.217',1.040
'23:43.219',1.040
'23:43.222',1.015
'23:43.225',0.960
'23:43.228',0.895
'23:43.231',0.815
'23:43.233',0.745
'23:43.236',0.660
'23:43.239',0.560
'23:43.242',0.475
'23:43.244',0.375
'23:43.247',0.285
'23:43.250',0.235
'23:43.253',0.195
'23:43.256',0.170
'23:43.258',0.160
'23:43.261',0.155
'23:43.264',0.150
'23:43.267',0.145
'23:43.269',0.150
'23:43.272',0.140
'23:43.275',0.120
'23:43.278',0.125
'23:43.281',0.110
'23:43.283',0.105
'23:43.286',0.100
'23:43.289',0.090
'23:43.292',0.080
'23:43.294',0.065
'23:43.297',0.075
'23:43.300',0.085
'23:43.303',0.085
'23:43.306',0.095
'23:43.308',0.095
'23:43.311',0.085
'23:43.314',0.100
'23:43.317',0.090
'23:43.319',0.065
'23:43.322',0.065
'23:43.325',0.070
'23:43.328',0.070
'23:43.331',0.075
'23:43.333',0.075
'23:43.336',0.070
'23:43.339',0.080
'23:43.342',0.065
'23:43.344',0.085
'23:43.347',0.075
'23:43.350',0.060
'23:43.353',0.045
'23:43.356',0.050
'23:43.358',0.045
'23:43.361',0.045
'23:43.364',0.055
'23:43.367',0.055
'23:43.369',0.060
'23:43.372',0.055
'23:43.375',0.065
'23:43.378',0.050
'23:43.381',0.060
'23:43.383',0.040
'23:43.386',0.040
'23:43.389',0.035
'23:43.392',0.020
'23:43.394',0.030
'23:43.397',0.040
'23:43.400',0.040
'23:43.403',0.055
'23:43.406',0.050
'23:43.408',0.060
'23:43.411',0.045
'23:43.414',0.035
'23:43.417',0.020
'23:43.419',0.010
'23:43.422',0.015
'23:43.425',0.000
'23:43.428',0.005
'23:43.431',0.010
'23:43.433',0.015
'23:43.436',0.015
'23:43.439',0.015
'23:43.442',0.015
'23:43.444',0.015
'23:43.447',0.010
'23:43.450',-0.015
'23:43.453',-0.015
'23:43.456',-0.015
'23:43.458',-0.025
'23:43.461',-0.020
'23:43.464',-0.015
'23:43.467',-0.015
'23:43.469',-0.010
'23:43.472',-0.010
'23:43.475',-0.020
'23:43.478',-0.030
'23:43.481',-0.035
'23:43.483',-0.050
'23:43.486',-0.055
'23:43.489',-0.065
'23:43.492',-0.080
'23:43.494',-0.095
'23:43.497',-0.090
'23:43.500',-0.085
'23:43.503',-0.085
'23:43.506',-0.080
'23:43.508',-0.095
'23:43.511',-0.080
'23:43.514',-0.100
'23:43.517',-0.115
'23:43.519',-0.125
'23:43.522',-0.130
'23:43.525',-0.125
'23:43.528',-0.120
'23:43.531',-0.120
'23:43.533',-0.125
'23:43.536',-0.120
'23:43.539',-0.115
'23:43.542',-0.105
'23:43.544',-0.105
'23:43.547',-0.110
'23:43.550',-0.100
'23:43.553',-0.110
'23:43.556',-0.105
'23:43.558',-0.100
'23:43.561',-0.100
'23:43.564',-0.095
'23:43.567',-0.085
'23:43.569',-0.065
'23:43.572',-0.055
'23:43.575',-0.045
'23:43.578',-0.045
'23:43.581',-0.050
'23:43.583',-0.040
'23:43.586',-0.035
'23:43.589',-0.030
'23:43.592',-0.030
'23:43.594',-0.020
'23:43.597',0.000
'23:43.600',0.005
'23:43.603',0.015
'23:43.606',0.030
'23:43.608',0.050
'23:43.611',0.040
'23:43.614',0.050
'23:43.617',0.055
'23:43.619',0.045
'23:43.622',0.045
'23:43.625',0.055
'23:43.628',0.075
'23:43.631',0.075
'23:43.633',0.080
'23:43.636',0.100
'23:43.639',0.105
'23:43.642',0.110
'23:43.644',0.100
'23:43.647',0.105
'23:43.650',0.100
'23:43.653',0.100
'23:43.656',0.105
'23:43.658',0.095
'23:43.661',0.100
'23:43.664',0.100
'23:43.667',0.110
'23:43.669',0.120
'23:43.672',0.125
'23:43.675',0.110
'23:43.678',0.120
'23:43.681',0.120
'23:43.683',0.115
'23:43.686',0.115
'23:43.689',0.110
'23:43.692',0.100
'23:43.694',0.110
'23:43.697',0.120
'23:43.700',0.115
'23:43.703',0.130
'23:43.706',0.130
'23:43.708',0.125
'23:43.711',0.125
'23:43.714',0.120
'23:43.717',0.115
'23:43.719',0.110
'23:43.722',0.100
'23:43.725',0.105
'23:43.728',0.100
'23:43.731',0.120
'23:43.733',0.125
'23:43.736',0.140
'23:43.739',0.140
'23:43.742',0.135
'23:43.744',0.135
'23:43.747',0.130
'23:43.750',0.130
'23:43.753',0.130
'23:43.756',0.120
'23:43.758',0.120
'23:43.761',0.120
'23:43.764',0.120
'23:43.767',0.130
'23:43.769',0.145
'23:43.772',0.130
'23:43.775',0.145
'23:43.778',0.130
'23:43.781',0.135
'23:43.783',0.130
'23:43.786',0.120
'23:43.789',0.115
'23:43.792',0.120
'23:43.794',0.120
'23:43.797',0.120
'23:43.800',0.140
'23:43.803',0.140
'23:43.806',0.135
'23:43.808',0.130
'23:43.811',0.140
'23:43.814',0.130
'23:43.817',0.120
'23:43.819',0.120
'23:43.822',0.115
'23:43.825',0.120
'23:43.828',0.110
'23:43.831',0.125
'23:43.833',0.140
'23:43.836',0.135
'23:43.839',0.135
'23:43.842',0.140
'23:43.844',0.140
'23:43.847',0.130
'23:43.850',0.120
'23:43.853',0.110
'23:43.856',0.120
'23:43.858',0.115
'23:43.861',0.095
'23:43.864',0.100
'23:43.867',0.120
'23:43.869',0.120
'23:43.872',0.130
'23:43.875',0.140
'23:43.878',0.135
'23:43.881',0.125
'23:43.883',0.120
'23:43.886',0.110
'23:43.889',0.105
'23:43.892',0.100
'23:43.894',0.105
'23:43.897',0.120
'23:43.900',0.125
'23:43.903',0.135
'23:43.906',0.125
'23:43.908',0.140
'23:43.911',0.125
'23:43.914',0.135
'23:43.917',0.130
'23:43.919',0.120
'23:43.922',0.125
'23:43.925',0.115
'23:43.928',0.110
'23:43.931',0.120
'23:43.933',0.125
'23:43.936',0.125
'23:43.939',0.135
'23:43.942',0.130
'23:43.944',0.130
'23:43.947',0.120
'23:43.950',0.115
'23:43.953',0.110
'23:43.956',0.100
'23:43.958',0.105
'23:43.961',0.115
'23:43.964',0.110
'23:43.967',0.110
'23:43.969',0.125
'23:43.972',0.130
'23:43.975',0.130
'23:43.978',0.145
'23:43.981',0.150
'23:43.983',0.145
'23:43.986',0.155
'23:43.989',0.150
'23:43.992',0.155
'23:43.994',0.160
'23:43.997',0.155
'23:44.000',0.165
'23:44.003',0.160
'23:44.006',0.150
'23:44.008',0.120
'23:44.011',0.115
'23:44.014',0.090
'23:44.017',0.090
'23:44.019',0.085
'23:44.022',0.070
'23:44.025',0.060
'23:44.028',0.070
'23:44.031',0.090
'23:44.033',0.080
'23:44.036',0.080
'23:44.039',0.090
'23:44.042',0.085
'23:44.044',0.090
'23:44.047',0.095
'23:44.050',0.095
'23:44.053',0.095
'23:44.056',0.095
'23:44.058',0.095
'23:44.061',0.095
'23:44.064',0.095
'23:44.067',0.100
'23:44.069',0.110
'23:44.072',0.115
'23:44.075',0.105
'23:44.078',0.100
'23:44.081',0.105
'23:44.083',0.085
'23:44.086',0.085
'23:44.089',0.080
'23:44.092',0.090
'23:44.094',0.085
'23:44.097',0.100
'23:44.100',0.100
'23:44.103',0.100
'23:44.106',0.105
'23:44.108',0.105
'23:44.111',0.105
'23:44.114',0.115
'23:44.117',0.115
'23:44.119',0.110
'23:44.122',0.090
'23:44.125',0.100
'23:44.128',0.095
'23:44.131',0.095
'23:44.133',0.115
'23:44.136',0.130
'23:44.139',0.160
'23:44.142',0.185
'23:44.144',0.210
'23:44.147',0.240
'23:44.150',0.245
'23:44.153',0.225
'23:44.156',0.200
'23:44.158',0.160
'23:44.161',0.110
'23:44.164',0.045
'23:44.167',-0.010
'23:44.169',-0.050
'23:44.172',-0.055
'23:44.175',-0.055
'23:44.178',-0.035
'23:44.181',-0.030
'23:44.183',-0.035
'23:44.186',-0.015
'23:44.189',0.025
'23:44.192',0.125
'23:44.194',0.270
'23:44.197',0.455
'23:44.200',0.630
'23:44.203',0.760
'23:44.206',0.865
'23:44.208',0.920
'23:44.211',0.970
'23:44.214',0.980
'23:44.217',0.990
'23:44.219',1.005
'23:44.222',1.005
'23:44.225',0.960
'23:44.228',0.915
'23:44.231',0.855
'23:44.233',0.785
'23:44.236',0.690
'23:44.239',0.610
'23:44.242',0.525
'23:44.244',0.425
'23:44.247',0.330
'23:44.250',0.245
'23:44.253',0.205
'23:44.256',0.175
'23:44.258',0.145
'23:44.261',0.140
'23:44.264',0.140
'23:44.267',0.145
'23:44.269',0.140
'23:44.272',0.130
'23:44.275',0.135
'23:44.278',0.115
'23:44.281',0.130
'23:44.283',0.105
'23:44.286',0.110
'23:44.289',0.085
'23:44.292',0.085
'23:44.294',0.080
'23:44.297',0.090
'23:44.300',0.095
'23:44.303',0.095
'23:44.306',0.090
'23:44.308',0.095
'23:44.311',0.090
'23:44.314',0.085
'23:44.317',0.085
'23:44.319',0.065
'23:44.322',0.055
'23:44.325',0.060
'23:44.328',0.055
'23:44.331',0.060
'23:44.333',0.070
'23:44.336',0.070
'23:44.339',0.070
'23:44.342',0.070
'23:44.344',0.070
'23:44.347',0.060
'23:44.350',0.050
'23:44.353',0.045
'23:44.356',0.040
'23:44.358',0.035
'23:44.361',0.045
'23:44.364',0.050
'23:44.367',0.050
'23:44.369',0.060
'23:44.372',0.065
'23:44.375',0.055
'23:44.378',0.050
'23:44.381',0.055
'23:44.383',0.050
'23:44.386',0.035
'23:44.389',0.025
'23:44.392',0.025
'23:44.394',0.020
'23:44.397',0.020
'23:44.400',0.025
'23:44.403',0.030
'23:44.406',0.045
'23:44.408',0.045
'23:44.411',0.040
'23:44.414',0.035
'23:44.417',0.035
'23:44.419',0.020
'23:44.422',0.015
'23:44.425',0.005
'23:44.428',0.005
'23:44.431',0.015
'23:44.433',0.015
'23:44.436',0.015
'23:44.439',0.010
'23:44.442',0.025
'23:44.444',0.025
'23:44.447',0.020
'23:44.450',-0.005
'23:44.453',-0.010
'23:44.456',-0.020
'23:44.458',-0.010
'23:44.461',-0.020
'23:44.464',-0.015
'23:44.467',-0.010
'23:44.469',-0.005
'23:44.472',0.000
'23:44.475',0.000
'23:44.478',-0.005
'23:44.481',-0.015
'23:44.483',-0.025
'23:44.486',-0.030
'23:44.489',-0.030
'23:44.492',-0.040
'23:44.494',-0.060
'23:44.497',-0.055
'23:44.500',-0.055
'23:44.503',-0.050
'23:44.506',-0.050
'23:44.508',-0.060
'23:44.511',-0.050
'23:44.514',-0.070
'23:44.517',-0.085
'23:44.519',-0.085
'23:44.522',-0.110
'23:44.525',-0.100
'23:44.528',-0.105
'23:44.531',-0.120
'23:44.533',-0.095
'23:44.536',-0.100
'23:44.539',-0.100
'23:44.542',-0.100
'23:44.544',-0.105
'23:44.547',-0.115
'23:44.550',-0.120
'23:44.553',-0.130
'23:44.556',-0.140
'23:44.558',-0.145
'23:44.561',-0.145
'23:44.564',-0.145
'23:44.567',-0.135
'23:44.569',-0.140
'23:44.572',-0.120
'23:44.575',-0.120
'23:44.578',-0.120
'23:44.581',-0.120
'23:44.583',-0.140
'23:44.586',-0.135
'23:44.589',-0.140
'23:44.592',-0.135
'23:44.594',-0.125
'23:44.597',-0.105
'23:44.600',-0.100
'23:44.603',-0.095
'23:44.606',-0.090
'23:44.608',-0.080
'23:44.611',-0.090
'23:44.614',-0.070
'23:44.617',-0.080
'23:44.619',-0.080
'23:44.622',-0.065
'23:44.625',-0.065
'23:44.628',-0.065
'23:44.631',-0.040
'23:44.633',-0.040
'23:44.636',-0.025
'23:44.639',-0.005
'23:44.642',0.000
'23:44.644',0.010
'23:44.647',0.015
'23:44.650',0.000
'23:44.653',0.010
'23:44.656',0.005
'23:44.658',0.000
'23:44.661',0.015
'23:44.664',0.020
'23:44.667',0.035
'23:44.669',0.045
'23:44.672',0.055
'23:44.675',0.065
'23:44.678',0.060
'23:44.681',0.060
'23:44.683',0.060
'23:44.686',0.055
'23:44.689',0.050
'23:44.692',0.065
'23:44.694',0.050
'23:44.697',0.065
'23:44.700',0.070
'23:44.703',0.080
'23:44.706',0.085
'23:44.708',0.090
'23:44.711',0.090
'23:44.714',0.080
'23:44.717',0.080
'23:44.719',0.090
'23:44.722',0.090
'23:44.725',0.090
'23:44.728',0.090
'23:44.731',0.100
'23:44.733',0.100
'23:44.736',0.110
'23:44.739',0.105
'23:44.742',0.125
'23:44.744',0.125
'23:44.747',0.115
'23:44.750',0.110
'23:44.753',0.100
'23:44.756',0.090
'23:44.758',0.090
'23:44.761',0.100
'23:44.764',0.095
'23:44.767',0.110
'23:44.769',0.125
'23:44.772',0.130
'23:44.775',0.125
'23:44.778',0.130
'23:44.781',0.120
'23:44.783',0.120
'23:44.786',0.115
'23:44.789',0.105
'23:44.792',0.095
'23:44.794',0.100
'23:44.797',0.105
'23:44.800',0.120
'23:44.803',0.110
'23:44.806',0.120
'23:44.808',0.130
'23:44.811',0.115
'23:44.814',0.115
'23:44.817',0.115
'23:44.819',0.105
'23:44.822',0.100
'23:44.825',0.095
'23:44.828',0.100
'23:44.831',0.105
'23:44.833',0.110
'23:44.836',0.105
'23:44.839',0.115
'23:44.842',0.120
'23:44.844',0.115
'23:44.847',0.125
'23:44.850',0.115
'23:44.853',0.105
'23:44.856',0.105
'23:44.858',0.110
'23:44.861',0.110
'23:44.864',0.105
'23:44.867',0.120
'23:44.869',0.120
'23:44.872',0.125
'23:44.875',0.130
'23:44.878',0.125
'23:44.881',0.125
'23:44.883',0.120
'23:44.886',0.110
'23:44.889',0.105
'23:44.892',0.080
'23:44.894',0.100
'23:44.897',0.105
'23:44.900',0.115
'23:44.903',0.115
'23:44.906',0.120
'23:44.908',0.130
'23:44.911',0.125
'23:44.914',0.130
'23:44.917',0.105
'23:44.919',0.110
'23:44.922',0.105
'23:44.925',0.090
'23:44.928',0.095
'23:44.931',0.095
'23:44.933',0.105
'23:44.936',0.110
'23:44.939',0.120
'23:44.942',0.120
'23:44.944',0.120
'23:44.947',0.120
'23:44.950',0.100
'23:44.953',0.095
'23:44.956',0.100
'23:44.958',0.105
'23:44.961',0.110
'23:44.964',0.115
'23:44.967',0.125
'23:44.969',0.135
'23:44.972',0.135
'23:44.975',0.155
'23:44.978',0.135
'23:44.981',0.155
'23:44.983',0.155
'23:44.986',0.155
'23:44.989',0.165
'23:44.992',0.155
'23:44.994',0.160
'23:44.997',0.170
'23:45.000',0.170
'23:45.003',0.165
'23:45.006',0.160
'23:45.008',0.165
'23:45.011',0.130
'23:45.014',0.130
'23:45.017',0.115
'23:45.019',0.110
'23:45.022',0.105
'23:45.025',0.100
'23:45.028',0.095
'23:45.031',0.090
'23:45.033',0.095
'23:45.036',0.115
'23:45.039',0.120
'23:45.042',0.125
'23:45.044',0.115
'23:45.047',0.105
'23:45.050',0.105
'23:45.053',0.105
'23:45.056',0.105
'23:45.058',0.110
'23:45.061',0.120
'23:45.064',0.135
'23:45.067',0.145
'23:45.069',0.145
'23:45.072',0.140
'23:45.075',0.130
'23:45.078',0.130
'23:45.081',0.130
'23:45.083',0.120
'23:45.086',0.115
'23:45.089',0.115
'23:45.092',0.105
'23:45.094',0.110
'23:45.097',0.120
'23:45.100',0.115
'23:45.103',0.125
'23:45.106',0.130
'23:45.108',0.135
'23:45.111',0.135
'23:45.114',0.150
'23:45.117',0.135
'23:45.119',0.140
'23:45.122',0.125
'23:45.125',0.120
'23:45.128',0.120
'23:45.131',0.135
'23:45.133',0.135
'23:45.136',0.150
'23:45.139',0.160
'23:45.142',0.160
'23:45.144',0.160
'23:45.147',0.160
'23:45.150',0.155
'23:45.153',0.165
'23:45.156',0.170
'23:45.158',0.195
'23:45.161',0.210
'23:45.164',0.255
'23:45.167',0.280
'23:45.169',0.280
'23:45.172',0.270
'23:45.175',0.245
'23:45.178',0.200
'23:45.181',0.125
'23:45.183',0.050
'23:45.186',-0.025
'23:45.189',-0.070
'23:45.192',-0.065
'23:45.194',-0.045
'23:45.197',0.015
'23:45.200',0.075
'23:45.203',0.115
'23:45.206',0.130
'23:45.208',0.140
'23:45.211',0.180
'23:45.214',0.290
'23:45.217',0.425
'23:45.219',0.550
'23:45.222',0.675
'23:45.225',0.795
'23:45.228',0.860
'23:45.231',0.910
'23:45.233',0.960
'23:45.236',0.995
'23:45.239',1.030
'23:45.242',1.055
'23:45.244',1.055
'23:45.247',1.035
'23:45.250',0.985
'23:45.253',0.920
'23:45.256',0.860
'23:45.258',0.785
'23:45.261',0.700
'23:45.264',0.620
'23:45.267',0.525
'23:45.269',0.405
'23:45.272',0.345
'23:45.275',0.275
'23:45.278',0.230
'23:45.281',0.200
'23:45.283',0.195
'23:45.286',0.170
'23:45.289',0.155
'23:45.292',0.140
'23:45.294',0.140
'23:45.297',0.130
'23:45.300',0.125
'23:45.303',0.125
'23:45.306',0.125
'23:45.308',0.130
'23:45.311',0.120
'23:45.314',0.110
'23:45.317',0.100
'23:45.319',0.095
'23:45.322',0.085
'23:45.325',0.080
'23:45.328',0.080
'23:45.331',0.075
'23:45.333',0.085
'23:45.336',0.090
'23:45.339',0.095
'23:45.342',0.110
'23:45.344',0.105
'23:45.347',0.090
'23:45.350',0.075
'23:45.353',0.080
'23:45.356',0.075
'23:45.358',0.070
'23:45.361',0.075
'23:45.364',0.065
'23:45.367',0.070
'23:45.369',0.075
'23:45.372',0.085
'23:45.375',0.085
'23:45.378',0.075
'23:45.381',0.075
'23:45.383',0.085
'23:45.386',0.070
'23:45.389',0.065
'23:45.392',0.045
'23:45.394',0.050
'23:45.397',0.055
'23:45.400',0.060
'23:45.403',0.075
'23:45.406',0.085
'23:45.408',0.075
'23:45.411',0.065
'23:45.414',0.060
'23:45.417',0.050
'23:45.419',0.050
'23:45.422',0.050
'23:45.425',0.040
'23:45.428',0.035
'23:45.431',0.050
'23:45.433',0.045
'23:45.436',0.050
'23:45.439',0.045
'23:45.442',0.045
'23:45.444',0.040
'23:45.447',0.050
'23:45.450',0.030
'23:45.453',0.030
'23:45.456',0.030
'23:45.458',0.020
'23:45.461',0.015
'23:45.464',0.020
'23:45.467',0.025
'23:45.469',0.030
'23:45.472',0.040
'23:45.475',0.030
'23:45.478',0.030
'23:45.481',0.025
'23:45.483',0.015
'23:45.486',0.010
'23:45.489',-0.020
'23:45.492',-0.020
'23:45.494',-0.030
'23:45.497',-0.025
'23:45.500',-0.015
'23:45.503',-0.025
'23:45.506',-0.025
'23:45.508',-0.040
'23:45.511',-0.035
'23:45.514',-0.055
'23:45.517',-0.060
'23:45.519',-0.065
'23:45.522',-0.080
'23:45.525',-0.090
'23:45.528',-0.080
'23:45.531',-0.095
'23:45.533',-0.080
'23:45.536',-0.085
'23:45.539',-0.085
'23:45.542',-0.090
'23:45.544',-0.095
'23:45.547',-0.100
'23:45.550',-0.105
'23:45.553',-0.110
'23:45.556',-0.120
'23:45.558',-0.110
'23:45.561',-0.120
'23:45.564',-0.105
'23:45.567',-0.105
'23:45.569',-0.090
'23:45.572',-0.080
'23:45.575',-0.080
'23:45.578',-0.065
'23:45.581',-0.060
'23:45.583',-0.070
'23:45.586',-0.070
'23:45.589',-0.075
'23:45.592',-0.065
'23:45.594',-0.060
'23:45.597',-0.060
'23:45.600',-0.025
'23:45.603',-0.030
'23:45.606',-0.010
'23:45.608',0.005
'23:45.611',0.005
'23:45.614',0.020
'23:45.617',0.015
'23:45.619',0.035
'23:45.622',0.035
'23:45.625',0.030
'23:45.628',0.045
'23:45.631',0.060
'23:45.633',0.070
'23:45.636',0.095
'23:45.639',0.100
'23:45.642',0.100
'23:45.644',0.110
'23:45.647',0.115
'23:45.650',0.120
'23:45.653',0.110
'23:45.656',0.110
'23:45.658',0.105
'23:45.661',0.120
'23:45.664',0.125
'23:45.667',0.140
'23:45.669',0.135
'23:45.672',0.145
'23:45.675',0.160
'23:45.678',0.165
'23:45.681',0.165
'23:45.683',0.170
'23:45.686',0.155
'23:45.689',0.150
'23:45.692',0.145
'23:45.694',0.150
'23:45.697',0.150
'23:45.700',0.165
'23:45.703',0.165
'23:45.706',0.170
'23:45.708',0.185
'23:45.711',0.175
'23:45.714',0.190
'23:45.717',0.175
'23:45.719',0.170
'23:45.722',0.160
'23:45.725',0.165
'23:45.728',0.150
'23:45.731',0.170
'23:45.733',0.170
'23:45.736',0.185
'23:45.739',0.185
'23:45.742',0.190
'23:45.744',0.200
'23:45.747',0.195
'23:45.750',0.170
'23:45.753',0.190
'23:45.756',0.175
'23:45.758',0.165
'23:45.761',0.165
'23:45.764',0.165
'23:45.767',0.180
'23:45.769',0.180
'23:45.772',0.195
'23:45.775',0.205
'23:45.778',0.195
'23:45.781',0.190
'23:45.783',0.175
'23:45.786',0.175
'23:45.789',0.165
'23:45.792',0.155
'23:45.794',0.160
'23:45.797',0.170
'23:45.800',0.180
'23:45.803',0.185
'23:45.806',0.180
'23:45.808',0.185
'23:45.811',0.180
'23:45.814',0.195
'23:45.817',0.190
'23:45.819',0.190
'23:45.822',0.170
'23:45.825',0.170
'23:45.828',0.175
'23:45.831',0.170
'23:45.833',0.180
'23:45.836',0.185
'23:45.839',0.185
'23:45.842',0.190
'23:45.844',0.185
'23:45.847',0.195
'23:45.850',0.185
'23:45.853',0.175
'23:45.856',0.170
'23:45.858',0.170
'23:45.861',0.155
'23:45.864',0.175
'23:45.867',0.190
'23:45.869',0.195
'23:45.872',0.190
'23:45.875',0.195
'23:45.878',0.190
'23:45.881',0.190
'23:45.883',0.180
'23:45.886',0.180
'23:45.889',0.170
'23:45.892',0.165
'23:45.894',0.180
'23:45.897',0.175
'23:45.900',0.185
'23:45.903',0.200
'23:45.906',0.200
'23:45.908',0.195
'23:45.911',0.195
'23:45.914',0.205
'23:45.917',0.200
'23:45.919',0.200
'23:45.922',0.185
'23:45.925',0.180
'23:45.928',0.175
'23:45.931',0.185
'23:45.933',0.190
'23:45.936',0.210
'23:45.939',0.215
'23:45.942',0.225
'23:45.944',0.230
'23:45.947',0.230
'23:45.950',0.225
'23:45.953',0.205
'23:45.956',0.175
'23:45.958',0.170
'23:45.961',0.170
'23:45.964',0.150
'23:45.967',0.155
'23:45.969',0.160
'23:45.972',0.160
'23:45.975',0.160
'23:45.978',0.155
'23:45.981',0.160
'23:45.983',0.155
'23:45.986',0.165
'23:45.989',0.160
'23:45.992',0.155
'23:45.994',0.145
'23:45.997',0.145
'23:46.000',0.155
'23:46.003',0.170
'23:46.006',0.180
'23:46.008',0.190
'23:46.011',0.195
'23:46.014',0.185
'23:46.017',0.175
'23:46.019',0.160
'23:46.022',0.155
'23:46.025',0.150
'23:46.028',0.145
'23:46.031',0.140
'23:46.033',0.165
'23:46.036',0.165
'23:46.039',0.165
'23:46.042',0.175
'23:46.044',0.170
'23:46.047',0.175
'23:46.050',0.160
'23:46.053',0.160
'23:46.056',0.140
'23:46.058',0.145
'23:46.061',0.145
'23:46.064',0.145
'23:46.067',0.155
'23:46.069',0.160
'23:46.072',0.165
'23:46.075',0.170
'23:46.078',0.160
'23:46.081',0.160
'23:46.083',0.170
'23:46.086',0.160
'23:46.089',0.145
'23:46.092',0.145
'23:46.094',0.160
'23:46.097',0.195
'23:46.100',0.225
'23:46.103',0.270
'23:46.106',0.295
'23:46.108',0.315
'23:46.111',0.290
'23:46.114',0.245
'23:46.117',0.190
'23:46.119',0.105
'23:46.122',0.020
'23:46.125',-0.035
'23:46.128',-0.065
'23:46.131',-0.050
'23:46.133',-0.005
'23:46.136',0.035
'23:46.139',0.075
'23:46.142',0.110
'23:46.144',0.125
'23:46.147',0.200
'23:46.150',0.310
'23:46.153',0.460
'23:46.156',0.615
'23:46.158',0.740
'23:46.161',0.850
'23:46.164',0.925
'23:46.167',0.990
'23:46.169',1.025
'23:46.172',1.060
'23:46.175',1.080
'23:46.178',1.080
'23:46.181',1.030
'23:46.183',0.950
'23:46.186',0.870
'23:46.189',0.780
'23:46.192',0.680
'23:46.194',0.580
'23:46.197',0.475
'23:46.200',0.395
'23:46.203',0.315
'23:46.206',0.250
'23:46.208',0.230
'23:46.211',0.195
'23:46.214',0.180
'23:46.217',0.160
'23:46.219',0.150
'23:46.222',0.125
'23:46.225',0.125
'23:46.228',0.110
'23:46.231',0.100
'23:46.233',0.115
'23:46.236',0.120
'23:46.239',0.125
'23:46.242',0.115
'23:46.244',0.110
'23:46.247',0.100
'23:46.250',0.085
'23:46.253',0.090
'23:46.256',0.075
'23:46.258',0.075
'23:46.261',0.080
'23:46.264',0.075
'23:46.267',0.095
'23:46.269',0.090
'23:46.272',0.090
'23:46.275',0.085
'23:46.278',0.095
'23:46.281',0.085
'23:46.283',0.085
'23:46.286',0.070
'23:46.289',0.065
'23:46.292',0.060
'23:46.294',0.065
'23:46.297',0.065
'23:46.300',0.055
'23:46.303',0.055
'23:46.306',0.070
'23:46.308',0.075
'23:46.311',0.075
'23:46.314',0.075
'23:46.317',0.060
'23:46.319',0.055
'23:46.322',0.055
'23:46.325',0.045
'23:46.328',0.050
'23:46.331',0.045
'23:46.333',0.045
'23:46.336',0.050
'23:46.339',0.050
'23:46.342',0.055
'23:46.344',0.040
'23:46.347',0.050
'23:46.350',0.040
'23:46.353',0.035
'23:46.356',0.035
'23:46.358',0.030
'23:46.361',0.005
'23:46.364',0.015
'23:46.367',0.030
'23:46.369',0.030
'23:46.372',0.035
'23:46.375',0.035
'23:46.378',0.040
'23:46.381',0.035
'23:46.383',0.015
'23:46.386',0.005
'23:46.389',0.005
'23:46.392',0.000
'23:46.394',-0.005
'23:46.397',-0.025
'23:46.400',-0.010
'23:46.403',-0.010
'23:46.406',0.005
'23:46.408',-0.010
'23:46.411',-0.015
'23:46.414',-0.015
'23:46.417',-0.025
'23:46.419',-0.040
'23:46.422',-0.050
'23:46.425',-0.055
'23:46.428',-0.060
'23:46.431',-0.055
'23:46.433',-0.050
'23:46.436',-0.060
'23:46.439',-0.065
'23:46.442',-0.065
'23:46.444',-0.075
'23:46.447',-0.080
'23:46.450',-0.095
'23:46.453',-0.095
'23:46.456',-0.115
'23:46.458',-0.130
'23:46.461',-0.135
'23:46.464',-0.125
'23:46.467',-0.135
'23:46.469',-0.130
'23:46.472',-0.125
'23:46.475',-0.115
'23:46.478',-0.120
'23:46.481',-0.130
'23:46.483',-0.140
'23:46.486',-0.140
'23:46.489',-0.145
'23:46.492',-0.145
'23:46.494',-0.140
'23:46.497',-0.150
'23:46.500',-0.125
'23:46.503',-0.115
'23:46.506',-0.105
'23:46.508',-0.110
'23:46.511',-0.095
'23:46.514',-0.085
'23:46.517',-0.085
'23:46.519',-0.090
'23:46.522',-0.085
'23:46.525',-0.075
'23:46.528',-0.070
'23:46.531',-0.070
'23:46.533',-0.045
'23:46.536',-0.040
'23:46.539',-0.020
'23:46.542',-0.010
'23:46.544',-0.005
'23:46.547',0.010
'23:46.550',0.005
'23:46.553',0.010
'23:46.556',0.015
'23:46.558',0.010
'23:46.561',0.020
'23:46.564',0.035
'23:46.567',0.040
'23:46.569',0.050
'23:46.572',0.065
'23:46.575',0.070
'23:46.578',0.070
'23:46.581',0.075
'23:46.583',0.075
'23:46.586',0.070
'23:46.589',0.065
'23:46.592',0.065
'23:46.594',0.070
'23:46.597',0.075
'23:46.600',0.085
'23:46.603',0.095
'23:46.606',0.110
'23:46.608',0.115
'23:46.611',0.110
'23:46.614',0.115
'23:46.617',0.115
'23:46.619',0.100
'23:46.622',0.095
'23:46.625',0.085
'23:46.628',0.090
'23:46.631',0.100
'23:46.633',0.105
'23:46.636',0.105
'23:46.639',0.120
'23:46.642',0.125
'23:46.644',0.110
'23:46.647',0.125
'23:46.650',0.110
'23:46.653',0.115
'23:46.656',0.120
'23:46.658',0.105
'23:46.661',0.095
'23:46.664',0.100
'23:46.667',0.120
'23:46.669',0.115
'23:46.672',0.135
'23:46.675',0.135
'23:46.678',0.130
'23:46.681',0.130
'23:46.683',0.130
'23:46.686',0.115
'23:46.689',0.110
'23:46.692',0.105
'23:46.694',0.110
'23:46.697',0.115
'23:46.700',0.130
'23:46.703',0.130
'23:46.706',0.135
'23:46.708',0.145
'23:46.711',0.125
'23:46.714',0.135
'23:46.717',0.130
'23:46.719',0.130
'23:46.722',0.115
'23:46.725',0.110
'23:46.728',0.120
'23:46.731',0.115
'23:46.733',0.125
'23:46.736',0.130
'23:46.739',0.150
'23:46.742',0.155
'23:46.744',0.140
'23:46.747',0.140
'23:46.750',0.135
'23:46.753',0.115
'23:46.756',0.115
'23:46.758',0.110
'23:46.761',0.105
'23:46.764',0.105
'23:46.767',0.145
'23:46.769',0.140
'23:46.772',0.130
'23:46.775',0.140
'23:46.778',0.135
'23:46.781',0.135
'23:46.783',0.125
'23:46.786',0.130
'23:46.789',0.120
'23:46.792',0.110
'23:46.794',0.110
'23:46.797',0.120
'23:46.800',0.120
'23:46.803',0.120
'23:46.806',0.135
'23:46.808',0.125
'23:46.811',0.130
'23:46.814',0.125
'23:46.817',0.125
'23:46.819',0.110
'23:46.822',0.110
'23:46.825',0.110
'23:46.828',0.115
'23:46.831',0.105
'23:46.833',0.115
'23:46.836',0.120
'23:46.839',0.130
'23:46.842',0.135
'23:46.844',0.125
'23:46.847',0.120
'23:46.850',0.120
'23:46.853',0.125
'23:46.856',0.115
'23:46.858',0.110
'23:46.861',0.110
'23:46.864',0.120
'23:46.867',0.125
'23:46.869',0.130
'23:46.872',0.135
'23:46.875',0.145
'23:46.878',0.145
'23:46.881',0.150
'23:46.883',0.140
'23:46.886',0.125
'23:46.889',0.130
'23:46.892',0.120
'23:46.894',0.135
'23:46.897',0.150
'23:46.900',0.150
'23:46.903',0.170
'23:46.906',0.175
'23:46.908',0.180
'23:46.911',0.180
'23:46.914',0.155
'23:46.917',0.140
'23:46.919',0.115
'23:46.922',0.095
'23:46.925',0.095
'23:46.928',0.090
'23:46.931',0.075
'23:46.933',0.075
'23:46.936',0.085
'23:46.939',0.100
'23:46.942',0.110
'23:46.944',0.110
'23:46.947',0.095
'23:46.950',0.090
'23:46.953',0.085
'23:46.956',0.075
'23:46.958',0.075
'23:46.961',0.080
'23:46.964',0.090
'23:46.967',0.110
'23:46.969',0.130
'23:46.972',0.125
'23:46.975',0.135
'23:46.978',0.135
'23:46.981',0.115
'23:46.983',0.130
'23:46.986',0.110
'23:46.989',0.095
'23:46.992',0.095
'23:46.994',0.105
'23:46.997',0.090
'23:47.000',0.105
'23:47.003',0.110
'23:47.006',0.125
'23:47.008',0.130
'23:47.011',0.125
'23:47.014',0.125
'23:47.017',0.115
'23:47.019',0.100
'23:47.022',0.110
'23:47.025',0.095
'23:47.028',0.100
'23:47.031',0.110
'23:47.033',0.120
'23:47.036',0.125
'23:47.039',0.130
'23:47.042',0.120
'23:47.044',0.125
'23:47.047',0.130
'23:47.050',0.120
'23:47.053',0.115
'23:47.056',0.125
'23:47.058',0.140
'23:47.061',0.150
'23:47.064',0.205
'23:47.067',0.235
'23:47.069',0.245
'23:47.072',0.270
'23:47.075',0.250
'23:47.078',0.215
'23:47.081',0.180
'23:47.083',0.125
'23:47.086',0.055
'23:47.089',-0.005
'23:47.092',-0.050
'23:47.094',-0.070
'23:47.097',-0.065
'23:47.100',-0.050
'23:47.103',-0.020
'23:47.106',-0.010
'23:47.108',0.005
'23:47.111',0.015
'23:47.114',0.070
'23:47.117',0.175
'23:47.119',0.305
'23:47.122',0.460
'23:47.125',0.610
'23:47.128',0.725
'23:47.131',0.820
'23:47.133',0.890
'23:47.136',0.940
'23:47.139',0.975
'23:47.142',1.010
'23:47.144',1.015
'23:47.147',1.020
'23:47.150',0.990
'23:47.153',0.940
'23:47.156',0.885
'23:47.158',0.815
'23:47.161',0.725
'23:47.164',0.635
'23:47.167',0.555
'23:47.169',0.460
'23:47.172',0.370
'23:47.175',0.305
'23:47.178',0.235
'23:47.181',0.200
'23:47.183',0.170
'23:47.186',0.160
'23:47.189',0.145
'23:47.192',0.120
'23:47.194',0.120
'23:47.197',0.105
'23:47.200',0.105
'23:47.203',0.110
'23:47.206',0.110
'23:47.208',0.120
'23:47.211',0.105
'23:47.214',0.100
'23:47.217',0.095
'23:47.219',0.080
'23:47.222',0.075
'23:47.225',0.070
'23:47.228',0.070
'23:47.231',0.080
'23:47.233',0.065
'23:47.236',0.090
'23:47.239',0.080
'23:47.242',0.095
'23:47.244',0.070
'23:47.247',0.075
'23:47.250',0.065
'23:47.253',0.055
'23:47.256',0.040
'23:47.258',0.040
'23:47.261',0.040
'23:47.264',0.045
'23:47.267',0.045
'23:47.269',0.055
'23:47.272',0.060
'23:47.275',0.060
'23:47.278',0.065
'23:47.281',0.075
'23:47.283',0.060
'23:47.286',0.045
'23:47.289',0.055
'23:47.292',0.045
'23:47.294',0.035
'23:47.297',0.045
'23:47.300',0.050
'23:47.303',0.045
'23:47.306',0.055
'23:47.308',0.050
'23:47.311',0.055
'23:47.314',0.055
'23:47.317',0.045
'23:47.319',0.040
'23:47.322',0.035
'23:47.325',0.020
'23:47.328',0.010
'23:47.331',0.025
'23:47.333',0.025
'23:47.336',0.030
'23:47.339',0.035
'23:47.342',0.025
'23:47.344',0.025
'23:47.347',0.025
'23:47.350',0.015
'23:47.353',0.015
'23:47.356',-0.005
'23:47.358',-0.005
'23:47.361',-0.010
'23:47.364',0.000
'23:47.367',0.010
'23:47.369',0.005
'23:47.372',0.010
'23:47.375',0.010
'23:47.378',0.015
'23:47.381',0.015
'23:47.383',0.000
'23:47.386',-0.015
'23:47.389',-0.025
'23:47.392',-0.030
'23:47.394',-0.035
'23:47.397',-0.025
'23:47.400',-0.030
'23:47.403',-0.020
'23:47.406',-0.015
'23:47.408',-0.030
'23:47.411',-0.035
'23:47.414',-0.025
'23:47.417',-0.045
'23:47.419',-0.040
'23:47.422',-0.060
'23:47.425',-0.070
'23:47.428',-0.065
'23:47.431',-0.080
'23:47.433',-0.080
'23:47.436',-0.075
'23:47.439',-0.070
'23:47.442',-0.070
'23:47.444',-0.090
'23:47.447',-0.085
'23:47.450',-0.105
'23:47.453',-0.115
'23:47.456',-0.120
'23:47.458',-0.135
'23:47.461',-0.140
'23:47.464',-0.130
'23:47.467',-0.130
'23:47.469',-0.125
'23:47.472',-0.130
'23:47.475',-0.135
'23:47.478',-0.125
'23:47.481',-0.125
'23:47.483',-0.145
'23:47.486',-0.135
'23:47.489',-0.155
'23:47.492',-0.160
'23:47.494',-0.165
'23:47.497',-0.165
'23:47.500',-0.145
'23:47.503',-0.135
'23:47.506',-0.130
'23:47.508',-0.115
'23:47.511',-0.120
'23:47.514',-0.125
'23:47.517',-0.125
'23:47.519',-0.125
'23:47.522',-0.130
'23:47.525',-0.120
'23:47.528',-0.125
'23:47.531',-0.105
'23:47.533',-0.105
'23:47.536',-0.090
'23:47.539',-0.080
'23:47.542',-0.070
'23:47.544',-0.075
'23:47.547',-0.060
'23:47.550',-0.060
'23:47.553',-0.060
'23:47.556',-0.060
'23:47.558',-0.045
'23:47.561',-0.050
'23:47.564',-0.045
'23:47.567',-0.020
'23:47.569',-0.020
'23:47.572',0.015
'23:47.575',0.010
'23:47.578',0.025
'23:47.581',0.030
'23:47.583',0.035
'23:47.586',0.040
'23:47.589',0.040
'23:47.592',0.045
'23:47.594',0.060
'23:47.597',0.065
'23:47.600',0.065
'23:47.603',0.075
'23:47.606',0.090
'23:47.608',0.090
'23:47.611',0.090
'23:47.614',0.090
'23:47.617',0.080
'23:47.619',0.080
'23:47.622',0.090
'23:47.625',0.080
'23:47.628',0.090
'23:47.631',0.095
'23:47.633',0.105
'23:47.636',0.095
'23:47.639',0.115
'23:47.642',0.115
'23:47.644',0.110
'23:47.647',0.120
'23:47.650',0.110
'23:47.653',0.115
'23:47.656',0.115
'23:47.658',0.110
'23:47.661',0.100
'23:47.664',0.105
'23:47.667',0.110
'23:47.669',0.120
'23:47.672',0.105
'23:47.675',0.115
'23:47.678',0.110
'23:47.681',0.115
'23:47.683',0.100
'23:47.686',0.085
'23:47.689',0.085
'23:47.692',0.085
'23:47.694',0.095
'23:47.697',0.110
'23:47.700',0.095
'23:47.703',0.105
'23:47.706',0.115
'23:47.708',0.105
'23:47.711',0.110
'23:47.714',0.095
'23:47.717',0.090
'23:47.719',0.080
'23:47.722',0.080
'23:47.725',0.085
'23:47.728',0.085
'23:47.731',0.085
'23:47.733',0.085
'23:47.736',0.100
'23:47.739',0.090
'23:47.742',0.110
'23:47.744',0.115
'23:47.747',0.110
'23:47.750',0.095
'23:47.753',0.090
'23:47.756',0.085
'23:47.758',0.080
'23:47.761',0.070
'23:47.764',0.085
'23:47.767',0.085
'23:47.769',0.085
'23:47.772',0.090
'23:47.775',0.085
'23:47.778',0.100
'23:47.781',0.100
'23:47.783',0.090
'23:47.786',0.085
'23:47.789',0.070
'23:47.792',0.070
'23:47.794',0.065
'23:47.797',0.070
'23:47.800',0.075
'23:47.803',0.075
'23:47.806',0.080
'23:47.808',0.085
'23:47.811',0.080
'23:47.814',0.090
'23:47.817',0.080
'23:47.819',0.080
'23:47.822',0.075
'23:47.825',0.075
'23:47.828',0.085
'23:47.831',0.090
'23:47.833',0.090
'23:47.836',0.085
'23:47.839',0.085
'23:47.842',0.090
'23:47.844',0.095
'23:47.847',0.100
'23:47.850',0.085
'23:47.853',0.100
'23:47.856',0.075
'23:47.858',0.075
'23:47.861',0.070
'23:47.864',0.090
'23:47.867',0.090
'23:47.869',0.105
'23:47.872',0.120
'23:47.875',0.130
'23:47.878',0.125
'23:47.881',0.135
'23:47.883',0.135
'23:47.886',0.115
'23:47.889',0.095
'23:47.892',0.085
'23:47.894',0.065
'23:47.897',0.060
'23:47.900',0.060
'23:47.903',0.045
'23:47.906',0.050
'23:47.908',0.055
'23:47.911',0.050
'23:47.914',0.050
'23:47.917',0.055
'23:47.919',0.055
'23:47.922',0.040
'23:47.925',0.040
'23:47.928',0.040
'23:47.931',0.045
'23:47.933',0.030
'23:47.936',0.045
'23:47.939',0.055
'23:47.942',0.065
'23:47.944',0.075
'23:47.947',0.085
'23:47.950',0.085
'23:47.953',0.075
'23:47.956',0.070
'23:47.958',0.065
'23:47.961',0.065
'23:47.964',0.065
'23:47.967',0.060
'23:47.969',0.065
'23:47.972',0.075
'23:47.975',0.075
'23:47.978',0.080
'23:47.981',0.085
'23:47.983',0.070
'23:47.986',0.060
'23:47.989',0.045
'23:47.992',0.050
'23:47.994',0.045
'23:47.997',0.055
'23:48.000',0.065
'23:48.003',0.080
'23:48.006',0.075
'23:48.008',0.090
'23:48.011',0.080
'23:48.014',0.080
'23:48.017',0.085
'23:48.019',0.080
'23:48.022',0.070
'23:48.025',0.075
'23:48.028',0.080
'23:48.031',0.075
'23:48.033',0.090
'23:48.036',0.105
'23:48.039',0.135
'23:48.042',0.155
'23:48.044',0.195
'23:48.047',0.220
'23:48.050',0.220
'23:48.053',0.195
'23:48.056',0.150
'23:48.058',0.100
'23:48.061',0.030
'23:48.064',-0.045
'23:48.067',-0.090
'23:48.069',-0.120
'23:48.072',-0.105
'23:48.075',-0.075
'23:48.078',-0.025
'23:48.081',0.025
'23:48.083',0.055
'23:48.086',0.070
'23:48.089',0.075
'23:48.092',0.145
'23:48.094',0.270
'23:48.097',0.420
'23:48.100',0.575
'23:48.103',0.710
'23:48.106',0.815
'23:48.108',0.880
'23:48.111',0.925
'23:48.114',0.960
'23:48.117',0.980
'23:48.119',0.990
'23:48.122',1.010
'23:48.125',0.980
'23:48.128',0.935
'23:48.131',0.890
'23:48.133',0.835
'23:48.136',0.760
'23:48.139',0.680
'23:48.142',0.570
'23:48.144',0.460
'23:48.147',0.340
'23:48.150',0.245
'23:48.153',0.185
'23:48.156',0.140
'23:48.158',0.105
'23:48.161',0.110
'23:48.164',0.115
'23:48.167',0.120
'23:48.169',0.120
'23:48.172',0.110
'23:48.175',0.105
'23:48.178',0.105
'23:48.181',0.090
'23:48.183',0.085
'23:48.186',0.075
'23:48.189',0.070
'23:48.192',0.055
'23:48.194',0.070
'23:48.197',0.055
'23:48.200',0.055
'23:48.203',0.055
'23:48.206',0.065
'23:48.208',0.065
'23:48.211',0.065
'23:48.214',0.060
'23:48.217',0.055
'23:48.219',0.055
'23:48.222',0.035
'23:48.225',0.020
'23:48.228',0.015
'23:48.231',0.020
'23:48.233',0.050
'23:48.236',0.040
'23:48.239',0.045
'23:48.242',0.040
'23:48.244',0.040
'23:48.247',0.040
'23:48.250',0.025
'23:48.253',0.015
'23:48.256',0.020
'23:48.258',0.015
'23:48.261',0.020
'23:48.264',0.010
'23:48.267',0.025
'23:48.269',0.015
'23:48.272',0.025
'23:48.275',0.025
'23:48.278',0.025
'23:48.281',0.025
'23:48.283',0.020
'23:48.286',0.010
'23:48.289',0.020
'23:48.292',0.010
'23:48.294',-0.005
'23:48.297',0.015
'23:48.300',0.010
'23:48.303',0.020
'23:48.306',0.030
'23:48.308',0.035
'23:48.311',0.030
'23:48.314',0.020
'23:48.317',0.015
'23:48.319',0.000
'23:48.322',-0.005
'23:48.325',-0.015
'23:48.328',-0.015
'23:48.331',-0.005
'23:48.333',-0.015
'23:48.336',0.000
'23:48.339',0.005
'23:48.342',-0.005
'23:48.344',-0.005
'23:48.347',0.000
'23:48.350',-0.010
'23:48.353',-0.025
'23:48.356',-0.030
'23:48.358',-0.045
'23:48.361',-0.060
'23:48.364',-0.050
'23:48.367',-0.045
'23:48.369',-0.050
'23:48.372',-0.040
'23:48.375',-0.045
'23:48.378',-0.050
'23:48.381',-0.045
'23:48.383',-0.080
'23:48.386',-0.090
'23:48.389',-0.100
'23:48.392',-0.125
'23:48.394',-0.120
'23:48.397',-0.125
'23:48.400',-0.125
'23:48.403',-0.105
'23:48.406',-0.110
'23:48.408',-0.110
'23:48.411',-0.115
'23:48.414',-0.120
'23:48.417',-0.130
'23:48.419',-0.135
'23:48.422',-0.155
'23:48.425',-0.145
'23:48.428',-0.160
'23:48.431',-0.155
'23:48.433',-0.160
'23:48.436',-0.135
'23:48.439',-0.140
'23:48.442',-0.130
'23:48.444',-0.135
'23:48.447',-0.130
'23:48.450',-0.130
'23:48.453',-0.145
'23:48.456',-0.140
'23:48.458',-0.140
'23:48.461',-0.140
'23:48.464',-0.135
'23:48.467',-0.105
'23:48.469',-0.100
'23:48.472',-0.085
'23:48.475',-0.075
'23:48.478',-0.070
'23:48.481',-0.065
'23:48.483',-0.060
'23:48.486',-0.055
'23:48.489',-0.060
'23:48.492',-0.045
'23:48.494',-0.040
'23:48.497',-0.020
'23:48.500',-0.025
'23:48.503',0.010
'23:48.506',0.020
'23:48.508',0.030
'23:48.511',0.030
'23:48.514',0.045
'23:48.517',0.050
'23:48.519',0.045
'23:48.522',0.055
'23:48.525',0.050
'23:48.528',0.040
'23:48.531',0.070
'23:48.533',0.070
'23:48.536',0.070
'23:48.539',0.095
'23:48.542',0.100
'23:48.544',0.100
'23:48.547',0.110
'23:48.550',0.105
'23:48.553',0.100
'23:48.556',0.095
'23:48.558',0.090
'23:48.561',0.100
'23:48.564',0.100
'23:48.567',0.105
'23:48.569',0.115
'23:48.572',0.110
'23:48.575',0.120
'23:48.578',0.125
'23:48.581',0.125
'23:48.583',0.115
'23:48.586',0.110
'23:48.589',0.100
'23:48.592',0.105
'23:48.594',0.105
'23:48.597',0.120
'23:48.600',0.125
'23:48.603',0.120
'23:48.606',0.145
'23:48.608',0.140
'23:48.611',0.130
'23:48.614',0.130
'23:48.617',0.115
'23:48.619',0.110
'23:48.622',0.105
'23:48.625',0.110
'23:48.628',0.120
'23:48.631',0.120
'23:48.633',0.130
'23:48.636',0.145
'23:48.639',0.140
'23:48.642',0.150
'23:48.644',0.140
'23:48.647',0.130
'23:48.650',0.120
'23:48.653',0.120
'23:48.656',0.115
'23:48.658',0.105
'23:48.661',0.120
'23:48.664',0.115
'23:48.667',0.135
'23:48.669',0.125
'23:48.672',0.140
'23:48.675',0.150
'23:48.678',0.145
'23:48.681',0.135
'23:48.683',0.135
'23:48.686',0.120
'23:48.689',0.130
'23:48.692',0.110
'23:48.694',0.110
'23:48.697',0.115
'23:48.700',0.115
'23:48.703',0.125
'23:48.706',0.135
'23:48.708',0.145
'23:48.711',0.140
'23:48.714',0.150
'23:48.717',0.140
'23:48.719',0.135
'23:48.722',0.125
'23:48.725',0.125
'23:48.728',0.130
'23:48.731',0.120
'23:48.733',0.135
'23:48.736',0.140
'23:48.739',0.130
'23:48.742',0.150
'23:48.744',0.145
'23:48.747',0.140
'23:48.750',0.135
'23:48.753',0.140
'23:48.756',0.135
'23:48.758',0.120
'23:48.761',0.140
'23:48.764',0.130
'23:48.767',0.135
'23:48.769',0.150
'23:48.772',0.145
'23:48.775',0.150
'23:48.778',0.145
'23:48.781',0.145
'23:48.783',0.135
'23:48.786',0.130
'23:48.789',0.150
'23:48.792',0.150
'23:48.794',0.160
'23:48.797',0.160
'23:48.800',0.155
'23:48.803',0.155
'23:48.806',0.150
'23:48.808',0.135
'23:48.811',0.120
'23:48.814',0.105
'23:48.817',0.090
'23:48.819',0.080
'23:48.822',0.080
'23:48.825',0.090
'23:48.828',0.090
'23:48.831',0.095
'23:48.833',0.110
'23:48.836',0.105
'23:48.839',0.095
'23:48.842',0.105
'23:48.844',0.100
'23:48.847',0.100
'23:48.850',0.110
'23:48.853',0.135
'23:48.856',0.130
'23:48.858',0.130
'23:48.861',0.110
'23:48.864',0.105
'23:48.867',0.115
'23:48.869',0.110
'23:48.872',0.125
'23:48.875',0.115
'23:48.878',0.125
'23:48.881',0.120
'23:48.883',0.120
'23:48.886',0.115
'23:48.889',0.100
'23:48.892',0.095
'23:48.894',0.105
'23:48.897',0.105
'23:48.900',0.115
'23:48.903',0.115
'23:48.906',0.125
'23:48.908',0.130
'23:48.911',0.130
'23:48.914',0.125
'23:48.917',0.125
'23:48.919',0.120
'23:48.922',0.110
'23:48.925',0.110
'23:48.928',0.115
'23:48.931',0.115
'23:48.933',0.135
'23:48.936',0.160
'23:48.939',0.170
'23:48.942',0.205
'23:48.944',0.240
'23:48.947',0.255
'23:48.950',0.240
'23:48.953',0.215
'23:48.956',0.165
'23:48.958',0.110
'23:48.961',0.045
'23:48.964',-0.020
'23:48.967',-0.065
'23:48.969',-0.080
'23:48.972',-0.050
'23:48.975',-0.005
'23:48.978',0.045
'23:48.981',0.070
'23:48.983',0.075
'23:48.986',0.105
'23:48.989',0.170
'23:48.992',0.290
'23:48.994',0.440
'23:48.997',0.605
'23:49.000',0.730
'23:49.003',0.835
'23:49.006',0.910
'23:49.008',0.965
'23:49.011',1.000
'23:49.014',1.030
'23:49.017',1.030
'23:49.019',1.025
'23:49.022',0.995
'23:49.025',0.920
'23:49.028',0.850
'23:49.031',0.760
'23:49.033',0.695
'23:49.036',0.605
'23:49.039',0.500
'23:49.042',0.395
'23:49.044',0.315
'23:49.047',0.240
'23:49.050',0.195
'23:49.053',0.150
'23:49.056',0.140
'23:49.058',0.125
'23:49.061',0.120
'23:49.064',0.110
'23:49.067',0.105
'23:49.069',0.105
'23:49.072',0.115
'23:49.075',0.105
'23:49.078',0.100
'23:49.081',0.090
'23:49.083',0.075
'23:49.086',0.080
'23:49.089',0.065
'23:49.092',0.065
'23:49.094',0.065
'23:49.097',0.070
'23:49.100',0.070
'23:49.103',0.075
'23:49.106',0.080
'23:49.108',0.075
'23:49.111',0.080
'23:49.114',0.080
'23:49.117',0.070
'23:49.119',0.050
'23:49.122',0.055
'23:49.125',0.045
'23:49.128',0.050
'23:49.131',0.050
'23:49.133',0.065
'23:49.136',0.070
'23:49.139',0.075
'23:49.142',0.060
'23:49.144',0.065
'23:49.147',0.060
'23:49.150',0.050
'23:49.153',0.050
'23:49.156',0.035
'23:49.158',0.030
'23:49.161',0.020
'23:49.164',0.025
'23:49.167',0.035
'23:49.169',0.035
'23:49.172',0.040
'23:49.175',0.035
'23:49.178',0.035
'23:49.181',0.030
'23:49.183',0.030
'23:49.186',0.020
'23:49.189',0.005
'23:49.192',-0.010
'23:49.194',-0.005
'23:49.197',-0.015
'23:49.200',0.000
'23:49.203',0.000
'23:49.206',0.000
'23:49.208',0.000
'23:49.211',0.000
'23:49.214',-0.015
'23:49.217',-0.010
'23:49.219',-0.010
'23:49.222',-0.020
'23:49.225',-0.025
'23:49.228',-0.030
'23:49.231',-0.030
'23:49.233',-0.030
'23:49.236',-0.020
'23:49.239',-0.020
'23:49.242',-0.020
'23:49.244',-0.020
'23:49.247',-0.030
'23:49.250',-0.035
'23:49.253',-0.045
'23:49.256',-0.060
'23:49.258',-0.070
'23:49.261',-0.070
'23:49.264',-0.070
'23:49.267',-0.060
'23:49.269',-0.055
'23:49.272',-0.055
'23:49.275',-0.060
'23:49.278',-0.060
'23:49.281',-0.065
'23:49.283',-0.080
'23:49.286',-0.080
'23:49.289',-0.110
'23:49.292',-0.115
'23:49.294',-0.120
'23:49.297',-0.130
'23:49.300',-0.125
'23:49.303',-0.125
'23:49.306',-0.115
'23:49.308',-0.120
'23:49.311',-0.125
'23:49.314',-0.150
'23:49.317',-0.145
'23:49.319',-0.155
'23:49.322',-0.170
'23:49.325',-0.175
'23:49.328',-0.175
'23:49.331',-0.180
'23:49.333',-0.175
'23:49.336',-0.165
'23:49.339',-0.155
'23:49.342',-0.155
'23:49.344',-0.165
'23:49.347',-0.160
'23:49.350',-0.165
'23:49.353',-0.180
'23:49.356',-0.180
'23:49.358',-0.185
'23:49.361',-0.175
'23:49.364',-0.170
'23:49.367',-0.160
'23:49.369',-0.140
'23:49.372',-0.135
'23:49.375',-0.120
'23:49.378',-0.115
'23:49.381',-0.120
'23:49.383',-0.105
'23:49.386',-0.110
'23:49.389',-0.090
'23:49.392',-0.110
'23:49.394',-0.090
'23:49.397',-0.080
'23:49.400',-0.065
'23:49.403',-0.045
'23:49.406',-0.035
'23:49.408',-0.020
'23:49.411',-0.015
'23:49.414',-0.005
'23:49.417',-0.005
'23:49.419',-0.005
'23:49.422',0.010
'23:49.425',0.010
'23:49.428',0.000
'23:49.431',0.015
'23:49.433',0.025
'23:49.436',0.045
'23:49.439',0.055
'23:49.442',0.060
'23:49.444',0.050
'23:49.447',0.065
'23:49.450',0.060
'23:49.453',0.070
'23:49.456',0.055
'23:49.458',0.055
'23:49.461',0.050
'23:49.464',0.070
'23:49.467',0.070
'23:49.469',0.075
'23:49.472',0.085
'23:49.475',0.080
'23:49.478',0.105
'23:49.481',0.080
'23:49.483',0.085
'23:49.486',0.080
'23:49.489',0.070
'23:49.492',0.070
'23:49.494',0.065
'23:49.497',0.080
'23:49.500',0.085
'23:49.503',0.085
'23:49.506',0.090
'23:49.508',0.100
'23:49.511',0.095
'23:49.514',0.105
'23:49.517',0.095
'23:49.519',0.080
'23:49.522',0.085
'23:49.525',0.060
'23:49.528',0.075
'23:49.531',0.075
'23:49.533',0.080
'23:49.536',0.090
'23:49.539',0.100
'23:49.542',0.095
'23:49.544',0.100
'23:49.547',0.110
'23:49.550',0.100
'23:49.553',0.085
'23:49.556',0.090
'23:49.558',0.090
'23:49.561',0.085
'23:49.564',0.075
'23:49.567',0.075
'23:49.569',0.095
'23:49.572',0.095
'23:49.575',0.105
'23:49.578',0.105
'23:49.581',0.110
'23:49.583',0.100
'23:49.586',0.095
'23:49.589',0.090
'23:49.592',0.075
'23:49.594',0.080
'23:49.597',0.090
'23:49.600',0.075
'23:49.603',0.090
'23:49.606',0.090
'23:49.608',0.100
'23:49.611',0.095
'23:49.614',0.085
'23:49.617',0.085
'23:49.619',0.085
'23:49.622',0.080
'23:49.625',0.075
'23:49.628',0.075
'23:49.631',0.080
'23:49.633',0.080
'23:49.636',0.080
'23:49.639',0.095
'23:49.642',0.105
'23:49.644',0.095
'23:49.647',0.100
'23:49.650',0.095
'23:49.653',0.080
'23:49.656',0.080
'23:49.658',0.075
'23:49.661',0.085
'23:49.664',0.075
'23:49.667',0.075
'23:49.669',0.075
'23:49.672',0.080
'23:49.675',0.110
'23:49.678',0.095
'23:49.681',0.090
'23:49.683',0.085
'23:49.686',0.100
'23:49.689',0.080
'23:49.692',0.070
'23:49.694',0.065
'23:49.697',0.075
'23:49.700',0.090
'23:49.703',0.080
'23:49.706',0.095
'23:49.708',0.105
'23:49.711',0.095
'23:49.714',0.100
'23:49.717',0.090
'23:49.719',0.100
'23:49.722',0.095
'23:49.725',0.085
'23:49.728',0.100
'23:49.731',0.090
'23:49.733',0.105
'23:49.736',0.120
'23:49.739',0.125
'23:49.742',0.130
'23:49.744',0.145
'23:49.747',0.135
'23:49.750',0.145
'23:49.753',0.135
'23:49.756',0.135
'23:49.758',0.130
'23:49.761',0.125
'23:49.764',0.110
'23:49.767',0.090
'23:49.769',0.085
'23:49.772',0.075
'23:49.775',0.075
'23:49.778',0.070
'23:49.781',0.065
'23:49.783',0.060
'23:49.786',0.040
'23:49.789',0.045
'23:49.792',0.045
'23:49.794',0.045
'23:49.797',0.050
'23:49.800',0.065
'23:49.803',0.060
'23:49.806',0.065
'23:49.808',0.055
'23:49.811',0.060
'23:49.814',0.060
'23:49.817',0.070
'23:49.819',0.070
'23:49.822',0.085
'23:49.825',0.070
'23:49.828',0.070
'23:49.831',0.080
'23:49.833',0.080
'23:49.836',0.085
'23:49.839',0.065
'23:49.842',0.090
'23:49.844',0.085
'23:49.847',0.085
'23:49.850',0.090
'23:49.853',0.065
'23:49.856',0.065
'23:49.858',0.055
'23:49.861',0.060
'23:49.864',0.065
'23:49.867',0.065
'23:49.869',0.075
'23:49.872',0.080
'23:49.875',0.095
'23:49.878',0.085
'23:49.881',0.090
'23:49.883',0.085
'23:49.886',0.080
'23:49.889',0.070
'23:49.892',0.075
'23:49.894',0.075
'23:49.897',0.075
'23:49.900',0.085
'23:49.903',0.085
'23:49.906',0.085
'23:49.908',0.105
'23:49.911',0.120
'23:49.914',0.140
'23:49.917',0.175
'23:49.919',0.195
'23:49.922',0.225
'23:49.925',0.235
'23:49.928',0.205
'23:49.931',0.200
'23:49.933',0.165
'23:49.936',0.115
'23:49.939',0.070
'23:49.942',0.010
'23:49.944',-0.020
'23:49.947',-0.050
'23:49.950',-0.060
'23:49.953',-0.060
'23:49.956',-0.045
'23:49.958',-0.045
'23:49.961',-0.040
'23:49.964',-0.015
'23:49.967',0.035
'23:49.969',0.145
'23:49.972',0.295
'23:49.975',0.465
'23:49.978',0.635
'23:49.981',0.760
'23:49.983',0.850
'23:49.986',0.905
'23:49.989',0.930
'23:49.992',0.965
'23:49.994',0.985
'23:49.997',0.995
'23:50.000',0.990
'23:50.003',0.940
'23:50.006',0.895
'23:50.008',0.830
'23:50.011',0.765
'23:50.014',0.660
'23:50.017',0.560
'23:50.019',0.440
'23:50.022',0.335
'23:50.025',0.255
'23:50.028',0.195
'23:50.031',0.170
'23:50.033',0.155
'23:50.036',0.155
'23:50.039',0.145
'23:50.042',0.150
'23:50.044',0.135
'23:50.047',0.120
'23:50.050',0.105
'23:50.053',0.105
'23:50.056',0.090
'23:50.058',0.085
'23:50.061',0.075
'23:50.064',0.085
'23:50.067',0.085
'23:50.069',0.080
'23:50.072',0.090
'23:50.075',0.090
'23:50.078',0.095
'23:50.081',0.095
'23:50.083',0.085
'23:50.086',0.090
'23:50.089',0.075
'23:50.092',0.070
'23:50.094',0.070
'23:50.097',0.065
'23:50.100',0.070
'23:50.103',0.070
'23:50.106',0.085
'23:50.108',0.090
'23:50.111',0.095
'23:50.114',0.080
'23:50.117',0.080
'23:50.119',0.070
'23:50.122',0.060
'23:50.125',0.060
'23:50.128',0.055
'23:50.131',0.055
'23:50.133',0.050
'23:50.136',0.060
'23:50.139',0.070
'23:50.142',0.070
'23:50.144',0.075
'23:50.147',0.075
'23:50.150',0.055
'23:50.153',0.050
'23:50.156',0.045
'23:50.158',0.030
'23:50.161',0.030
'23:50.164',0.030
'23:50.167',0.035
'23:50.169',0.035
'23:50.172',0.035
'23:50.175',0.055
'23:50.178',0.050
'23:50.181',0.045
'23:50.183',0.035
'23:50.186',0.030
'23:50.189',0.025
'23:50.192',0.015
'23:50.194',0.015
'23:50.197',0.015
'23:50.200',0.015
'23:50.203',0.015
'23:50.206',0.025
'23:50.208',0.015
'23:50.211',0.030
'23:50.214',0.035
'23:50.217',0.010
'23:50.219',0.010
'23:50.222',-0.005
'23:50.225',0.000
'23:50.228',-0.020
'23:50.231',-0.015
'23:50.233',-0.005
'23:50.236',0.000
'23:50.239',-0.005
'23:50.242',0.000
'23:50.244',-0.005
'23:50.247',-0.010
'23:50.250',-0.015
'23:50.253',-0.030
'23:50.256',-0.050
'23:50.258',-0.050
'23:50.261',-0.045
'23:50.264',-0.050
'23:50.267',-0.055
'23:50.269',-0.055
'23:50.272',-0.045
'23:50.275',-0.055
'23:50.278',-0.065
'23:50.281',-0.060
'23:50.283',-0.070
'23:50.286',-0.090
'23:50.289',-0.095
'23:50.292',-0.100
'23:50.294',-0.105
'23:50.297',-0.130
'23:50.300',-0.110
'23:50.303',-0.110
'23:50.306',-0.100
'23:50.308',-0.105
'23:50.311',-0.100
'23:50.314',-0.110
'23:50.317',-0.110
'23:50.319',-0.115
'23:50.322',-0.125
'23:50.325',-0.135
'23:50.328',-0.135
'23:50.331',-0.135
'23:50.333',-0.135
'23:50.336',-0.125
'23:50.339',-0.105
'23:50.342',-0.110
'23:50.344',-0.095
'23:50.347',-0.095
'23:50.350',-0.100
'23:50.353',-0.105
'23:50.356',-0.110
'23:50.358',-0.095
'23:50.361',-0.095
'23:50.364',-0.085
'23:50.367',-0.090
'23:50.369',-0.055
'23:50.372',-0.055
'23:50.375',-0.035
'23:50.378',-0.035
'23:50.381',-0.030
'23:50.383',-0.040
'23:50.386',-0.040
'23:50.389',-0.035
'23:50.392',-0.025
'23:50.394',-0.025
'23:50.397',-0.005
'23:50.400',0.005
'23:50.403',0.015
'23:50.406',0.015
'23:50.408',0.035
'23:50.411',0.040
'23:50.414',0.050
'23:50.417',0.065
'23:50.419',0.050
'23:50.422',0.055
'23:50.425',0.055
'23:50.428',0.060
'23:50.431',0.075
'23:50.433',0.080
'23:50.436',0.100
'23:50.439',0.110
'23:50.442',0.120
'23:50.444',0.120
'23:50.447',0.125
'23:50.450',0.125
'23:50.453',0.120
'23:50.456',0.115
'23:50.458',0.105
'23:50.461',0.120
'23:50.464',0.130
'23:50.467',0.120
'23:50.469',0.150
'23:50.472',0.145
'23:50.475',0.145
'23:50.478',0.135
'23:50.481',0.150
'23:50.483',0.145
'23:50.486',0.135
'23:50.489',0.140
'23:50.492',0.135
'23:50.494',0.140
'23:50.497',0.140
'23:50.500',0.150
'23:50.503',0.160
'23:50.506',0.170
'23:50.508',0.175
'23:50.511',0.175
'23:50.514',0.180
'23:50.517',0.170
'23:50.519',0.165
'23:50.522',0.155
'23:50.525',0.165
'23:50.528',0.150
'23:50.531',0.145
'23:50.533',0.150
'23:50.536',0.170
'23:50.539',0.175
'23:50.542',0.175
'23:50.544',0.180
'23:50.547',0.165
'23:50.550',0.160
'23:50.553',0.160
'23:50.556',0.150
'23:50.558',0.155
'23:50.561',0.155
'23:50.564',0.145
'23:50.567',0.155
'23:50.569',0.165
'23:50.572',0.170
'23:50.575',0.175
'23:50.578',0.160
'23:50.581',0.160
'23:50.583',0.155
'23:50.586',0.140
'23:50.589',0.150
'23:50.592',0.150
'23:50.594',0.130
'23:50.597',0.140
'23:50.600',0.155
'23:50.603',0.155
'23:50.606',0.165
'23:50.608',0.165
'23:50.611',0.170
'23:50.614',0.170
'23:50.617',0.165
'23:50.619',0.155
'23:50.622',0.155
'23:50.625',0.145
'23:50.628',0.145
'23:50.631',0.150
'23:50.633',0.160
'23:50.636',0.160
'23:50.639',0.165
'23:50.642',0.165
'23:50.644',0.180
'23:50.647',0.170
'23:50.650',0.145
'23:50.653',0.150
'23:50.656',0.145
'23:50.658',0.135
'23:50.661',0.145
'23:50.664',0.135
'23:50.667',0.145
'23:50.669',0.155
'23:50.672',0.160
'23:50.675',0.160
'23:50.678',0.160
'23:50.681',0.155
'23:50.683',0.155
'23:50.686',0.145
'23:50.689',0.150
'23:50.692',0.140
'23:50.694',0.140
'23:50.697',0.150
'23:50.700',0.150
'23:50.703',0.155
'23:50.706',0.155
'23:50.708',0.170
'23:50.711',0.180
'23:50.714',0.180
'23:50.717',0.175
'23:50.719',0.155
'23:50.722',0.165
'23:50.725',0.155
'23:50.728',0.155
'23:50.731',0.150
'23:50.733',0.180
'23:50.736',0.175
'23:50.739',0.185
'23:50.742',0.190
'23:50.744',0.195
'23:50.747',0.210
'23:50.750',0.205
'23:50.753',0.205
'23:50.756',0.205
'23:50.758',0.210
'23:50.761',0.200
'23:50.764',0.195
'23:50.767',0.200
'23:50.769',0.200
'23:50.772',0.190
'23:50.775',0.190
'23:50.778',0.170
'23:50.781',0.155
'23:50.783',0.155
'23:50.786',0.145
'23:50.789',0.120
'23:50.792',0.110
'23:50.794',0.125
'23:50.797',0.120
'23:50.800',0.130
'23:50.803',0.125
'23:50.806',0.135
'23:50.808',0.135
'23:50.811',0.130
'23:50.814',0.125
'23:50.817',0.120
'23:50.819',0.125
'23:50.822',0.135
'23:50.825',0.140
'23:50.828',0.145
'23:50.831',0.140
'23:50.833',0.145
'23:50.836',0.145
'23:50.839',0.140
'23:50.842',0.150
'23:50.844',0.155
'23:50.847',0.155
'23:50.850',0.140
'23:50.853',0.150
'23:50.856',0.140
'23:50.858',0.135
'23:50.861',0.135
'23:50.864',0.135
'23:50.867',0.135
'23:50.869',0.135
'23:50.872',0.150
'23:50.875',0.155
'23:50.878',0.145
'23:50.881',0.165
'23:50.883',0.150
'23:50.886',0.150
'23:50.889',0.140
'23:50.892',0.140
'23:50.894',0.140
'23:50.897',0.140
'23:50.900',0.150
'23:50.903',0.165
'23:50.906',0.175
'23:50.908',0.195
'23:50.911',0.200
'23:50.914',0.235
'23:50.917',0.255
'23:50.919',0.280
'23:50.922',0.290
'23:50.925',0.275
'23:50.928',0.255
'23:50.931',0.215
'23:50.933',0.160
'23:50.936',0.090
'23:50.939',0.040
'23:50.942',0.005
'23:50.944',-0.005
'23:50.947',-0.005
'23:50.950',0.005
'23:50.953',0.015
'23:50.956',0.025
'23:50.958',0.045
'23:50.961',0.095
'23:50.964',0.215
'23:50.967',0.375
'23:50.969',0.565
'23:50.972',0.720
'23:50.975',0.860
'23:50.978',0.935
'23:50.981',0.980
'23:50.983',1.010
'23:50.986',1.025
'23:50.989',1.035
'23:50.992',1.035
'23:50.994',0.995
'23:50.997',0.960
'23:51.000',0.890
'23:51.003',0.820
'23:51.006',0.750
'23:51.008',0.645
'23:51.011',0.545
'23:51.014',0.425
'23:51.017',0.350
'23:51.019',0.265
'23:51.022',0.215
'23:51.025',0.195
'23:51.028',0.175
'23:51.031',0.175
'23:51.033',0.170
'23:51.036',0.165
'23:51.039',0.155
'23:51.042',0.165
'23:51.044',0.160
'23:51.047',0.155
'23:51.050',0.140
'23:51.053',0.120
'23:51.056',0.115
'23:51.058',0.110
'23:51.061',0.110
'23:51.064',0.110
'23:51.067',0.105
'23:51.069',0.120
'23:51.072',0.130
'23:51.075',0.130
'23:51.078',0.115
'23:51.081',0.120
'23:51.083',0.115
'23:51.086',0.105
'23:51.089',0.100
'23:51.092',0.095
'23:51.094',0.075
'23:51.097',0.085
'23:51.100',0.085
'23:51.103',0.100
'23:51.106',0.105
'23:51.108',0.115
'23:51.111',0.115
'23:51.114',0.115
'23:51.117',0.090
'23:51.119',0.090
'23:51.122',0.085
'23:51.125',0.080
'23:51.128',0.085
'23:51.131',0.075
'23:51.133',0.075
'23:51.136',0.090
'23:51.139',0.095
'23:51.142',0.105
'23:51.144',0.090
'23:51.147',0.095
'23:51.150',0.075
'23:51.153',0.060
'23:51.156',0.065
'23:51.158',0.060
'23:51.161',0.055
'23:51.164',0.055
'23:51.167',0.050
'23:51.169',0.055
'23:51.172',0.060
'23:51.175',0.065
'23:51.178',0.080
'23:51.181',0.080
'23:51.183',0.060
'23:51.186',0.055
'23:51.189',0.045
'23:51.192',0.035
'23:51.194',0.040
'23:51.197',0.035
'23:51.200',0.045
'23:51.203',0.060
'23:51.206',0.055
'23:51.208',0.055
'23:51.211',0.055
'23:51.214',0.060
'23:51.217',0.050
'23:51.219',0.045
'23:51.222',0.035
'23:51.225',0.020
'23:51.228',0.020
'23:51.231',0.015
'23:51.233',0.025
'23:51.236',0.020
'23:51.239',0.020
'23:51.242',0.025
'23:51.244',0.030
'23:51.247',0.030
'23:51.250',0.025
'23:51.253',0.005
'23:51.256',-0.015
'23:51.258',-0.035
'23:51.261',-0.035
'23:51.264',-0.020
'23:51.267',-0.025
'23:51.269',-0.020
'23:51.272',-0.030
'23:51.275',-0.040
'23:51.278',-0.030
'23:51.281',-0.035
'23:51.283',-0.035
'23:51.286',-0.050
'23:51.289',-0.060
'23:51.292',-0.070
'23:51.294',-0.065
'23:51.297',-0.070
'23:51.300',-0.080
'23:51.303',-0.080
'23:51.306',-0.080
'23:51.308',-0.070
'23:51.311',-0.070
'23:51.314',-0.075
'23:51.317',-0.080
'23:51.319',-0.080
'23:51.322',-0.100
'23:51.325',-0.105
'23:51.328',-0.100
'23:51.331',-0.110
'23:51.333',-0.085
'23:51.336',-0.085
'23:51.339',-0.075
'23:51.342',-0.070
'23:51.344',-0.075
'23:51.347',-0.065
'23:51.350',-0.075
'23:51.353',-0.070
'23:51.356',-0.085
'23:51.358',-0.085
'23:51.361',-0.070
'23:51.364',-0.070
'23:51.367',-0.055
'23:51.369',-0.040
'23:51.372',-0.020
'23:51.375',-0.020
'23:51.378',0.000
'23:51.381',-0.005
'23:51.383',-0.010
'23:51.386',0.010
'23:51.389',0.010
'23:51.392',0.010
'23:51.394',0.005
'23:51.397',0.030
'23:51.400',0.055
'23:51.403',0.060
'23:51.406',0.080
'23:51.408',0.095
'23:51.411',0.100
'23:51.414',0.105
'23:51.417',0.115
'23:51.419',0.110
'23:51.422',0.115
'23:51.425',0.115
'23:51.428',0.125
'23:51.431',0.125
'23:51.433',0.140
'23:51.436',0.160
'23:51.439',0.170
'23:51.442',0.175
'23:51.444',0.175
'23:51.447',0.175
'23:51.450',0.180
'23:51.453',0.175
'23:51.456',0.175
'23:51.458',0.165
'23:51.461',0.165
'23:51.464',0.180
'23:51.467',0.175
'23:51.469',0.190
'23:51.472',0.195
'23:51.475',0.210
'23:51.478',0.200
'23:51.481',0.195
'23:51.483',0.185
'23:51.486',0.190
'23:51.489',0.180
'23:51.492',0.170
'23:51.494',0.175
'23:51.497',0.190
'23:51.500',0.185
'23:51.503',0.195
'23:51.506',0.190
'23:51.508',0.195
'23:51.511',0.200
'23:51.514',0.190
'23:51.517',0.185
'23:51.519',0.185
'23:51.522',0.175
'23:51.525',0.170
'23:51.528',0.165
'23:51.531',0.180
'23:51.533',0.190
'23:51.536',0.185
'23:51.539',0.185
'23:51.542',0.200
'23:51.544',0.205
'23:51.547',0.210
'23:51.550',0.195
'23:51.553',0.185
'23:51.556',0.175
'23:51.558',0.175
'23:51.561',0.175
'23:51.564',0.190
'23:51.567',0.185
'23:51.569',0.200
'23:51.572',0.200
'23:51.575',0.195
'23:51.578',0.210
'23:51.581',0.210
'23:51.583',0.195
'23:51.586',0.195
'23:51.589',0.180
'23:51.592',0.190
'23:51.594',0.180
'23:51.597',0.175
'23:51.600',0.190
'23:51.603',0.190
'23:51.606',0.205
'23:51.608',0.200
'23:51.611',0.195
'23:51.614',0.200
'23:51.617',0.175
'23:51.619',0.180
'23:51.622',0.190
'23:51.625',0.185
'23:51.628',0.190
'23:51.631',0.195
'23:51.633',0.195
'23:51.636',0.200
'23:51.639',0.215
'23:51.642',0.210
'23:51.644',0.210
'23:51.647',0.210
'23:51.650',0.210
'23:51.653',0.200
'23:51.656',0.190
'23:51.658',0.180
'23:51.661',0.195
'23:51.664',0.180
'23:51.667',0.200
'23:51.669',0.195
'23:51.672',0.210
'23:51.675',0.220
'23:51.678',0.230
'23:51.681',0.220
'23:51.683',0.240
'23:51.686',0.240
'23:51.689',0.240
'23:51.692',0.240
'23:51.694',0.230
'23:51.697',0.215
'23:51.700',0.215
'23:51.703',0.190
'23:51.706',0.195
'23:51.708',0.190
'23:51.711',0.185
'23:51.714',0.170
'23:51.717',0.175
'23:51.719',0.155
'23:51.722',0.155
'23:51.725',0.170
'23:51.728',0.165
'23:51.731',0.175
'23:51.733',0.180
'23:51.736',0.170
'23:51.739',0.180
'23:51.742',0.185
'23:51.744',0.180
'23:51.747',0.200
'23:51.750',0.190
'23:51.753',0.210
'23:51.756',0.205
'23:51.758',0.205
'23:51.761',0.215
'23:51.764',0.190
'23:51.767',0.210
'23:51.769',0.215
'23:51.772',0.220
'23:51.775',0.210
'23:51.778',0.225
'23:51.781',0.215
'23:51.783',0.195
'23:51.786',0.205
'23:51.789',0.190
'23:51.792',0.185
'23:51.794',0.185
'23:51.797',0.190
'23:51.800',0.195
'23:51.803',0.210
'23:51.806',0.220
'23:51.808',0.225
'23:51.811',0.225
'23:51.814',0.225
'23:51.817',0.215
'23:51.819',0.215
'23:51.822',0.205
'23:51.825',0.210
'23:51.828',0.210
'23:51.831',0.215
'23:51.833',0.235
'23:51.836',0.240
'23:51.839',0.250
'23:51.842',0.275
'23:51.844',0.290
'23:51.847',0.300
'23:51.850',0.340
'23:51.853',0.335
'23:51.856',0.340
'23:51.858',0.295
'23:51.861',0.225
'23:51.864',0.165
'23:51.867',0.090
'23:51.869',0.050
'23:51.872',0.035
'23:51.875',0.060
'23:51.878',0.110
'23:51.881',0.160
'23:51.883',0.205
'23:51.886',0.210
'23:51.889',0.235
'23:51.892',0.255
'23:51.894',0.355
'23:51.897',0.500
'23:51.900',0.655
'23:51.903',0.790
'23:51.906',0.895
'23:51.908',0.975
'23:51.911',1.030
'23:51.914',1.070
'23:51.917',1.100
'23:51.919',1.125
'23:51.922',1.135
'23:51.925',1.110
'23:51.928',1.080
'23:51.931',1.025
'23:51.933',0.975
'23:51.936',0.920
'23:51.939',0.835
'23:51.942',0.745
'23:51.944',0.645
'23:51.947',0.530
'23:51.950',0.435
'23:51.953',0.345
'23:51.956',0.300
'23:51.958',0.270
'23:51.961',0.255
'23:51.964',0.240
'23:51.967',0.250
'23:51.969',0.260
'23:51.972',0.255
'23:51.975',0.250
'23:51.978',0.235
'23:51.981',0.230
'23:51.983',0.220
'23:51.986',0.225
'23:51.989',0.220
'23:51.992',0.205
'23:51.994',0.185
'23:51.997',0.195
'23:52.000',0.185
'23:52.003',0.190
'23:52.006',0.185
'23:52.008',0.195
'23:52.011',0.200
'23:52.014',0.190
'23:52.017',0.190
'23:52.019',0.185
'23:52.022',0.185
'23:52.025',0.170
'23:52.028',0.170
'23:52.031',0.165
'23:52.033',0.175
'23:52.036',0.190
'23:52.039',0.200
'23:52.042',0.195
'23:52.044',0.190
'23:52.047',0.180
'23:52.050',0.180
'23:52.053',0.170
'23:52.056',0.170
'23:52.058',0.170
'23:52.061',0.160
'23:52.064',0.155
'23:52.067',0.160
'23:52.069',0.165
'23:52.072',0.185
'23:52.075',0.195
'23:52.078',0.180
'23:52.081',0.175
'23:52.083',0.180
'23:52.086',0.165
'23:52.089',0.150
'23:52.092',0.150
'23:52.094',0.145
'23:52.097',0.150
'23:52.100',0.145
'23:52.103',0.160
'23:52.106',0.160
'23:52.108',0.155
'23:52.111',0.165
'23:52.114',0.155
'23:52.117',0.135
'23:52.119',0.135
'23:52.122',0.150
'23:52.125',0.135
'23:52.128',0.125
'23:52.131',0.120
'23:52.133',0.120
'23:52.136',0.130
'23:52.139',0.130
'23:52.142',0.130
'23:52.144',0.125
'23:52.147',0.130
'23:52.150',0.120
'23:52.153',0.115
'23:52.156',0.100
'23:52.158',0.100
'23:52.161',0.085
'23:52.164',0.090
'23:52.167',0.095
'23:52.169',0.095
'23:52.172',0.090
'23:52.175',0.105
'23:52.178',0.090
'23:52.181',0.090
'23:52.183',0.080
'23:52.186',0.075
'23:52.189',0.065
'23:52.192',0.055
'23:52.194',0.045
'23:52.197',0.040
'23:52.200',0.040
'23:52.203',0.040
'23:52.206',0.040
'23:52.208',0.035
'23:52.211',0.025
'23:52.214',0.025
'23:52.217',0.015
'23:52.219',-0.020
'23:52.222',-0.020
'23:52.225',-0.025
'23:52.228',-0.030
'23:52.231',-0.030
'23:52.233',-0.035
'23:52.236',-0.030
'23:52.239',-0.030
'23:52.242',-0.020
'23:52.244',-0.020
'23:52.247',-0.020
'23:52.250',-0.035
'23:52.253',-0.040
'23:52.256',-0.045
'23:52.258',-0.040
'23:52.261',-0.035
'23:52.264',-0.035
'23:52.267',-0.030
'23:52.269',-0.010
'23:52.272',-0.035
'23:52.275',0.010
'23:52.278',0.010
'23:52.281',0.005
'23:52.283',0.010
'23:52.286',0.010
'23:52.289',0.000
'23:52.292',0.015
'23:52.294',0.020
'23:52.297',0.025
'23:52.300',0.045
'23:52.303',0.060
'23:52.306',0.070
'23:52.308',0.075
'23:52.311',0.085
'23:52.314',0.095
'23:52.317',0.100
'23:52.319',0.085
'23:52.322',0.100
'23:52.325',0.090
'23:52.328',0.105
'23:52.331',0.110
'23:52.333',0.125
'23:52.336',0.130
'23:52.339',0.135
'23:52.342',0.160
'23:52.344',0.160
'23:52.347',0.180
'23:52.350',0.180
'23:52.353',0.190
'23:52.356',0.185
'23:52.358',0.170
'23:52.361',0.175
'23:52.364',0.195
'23:52.367',0.200
'23:52.369',0.215
'23:52.372',0.210
'23:52.375',0.210
'23:52.378',0.205
'23:52.381',0.230
'23:52.383',0.215
'23:52.386',0.210
'23:52.389',0.205
'23:52.392',0.195
'23:52.394',0.215
'23:52.397',0.210
'23:52.400',0.225
'23:52.403',0.225
'23:52.406',0.240
'23:52.408',0.235
'23:52.411',0.245
'23:52.414',0.225
'23:52.417',0.235
'23:52.419',0.240
'23:52.422',0.215
'23:52.425',0.215
'23:52.428',0.205
'23:52.431',0.215
'23:52.433',0.215
'23:52.436',0.225
'23:52.439',0.230
'23:52.442',0.250
'23:52.444',0.235
'23:52.447',0.235
'23:52.450',0.235
'23:52.453',0.225
'23:52.456',0.215
'23:52.458',0.195
'23:52.461',0.200
'23:52.464',0.210
'23:52.467',0.220
'23:52.469',0.225
'23:52.472',0.235
'23:52.475',0.240
'23:52.478',0.240
'23:52.481',0.225
'23:52.483',0.230
'23:52.486',0.220
'23:52.489',0.205
'23:52.492',0.215
'23:52.494',0.210
'23:52.497',0.225
'23:52.500',0.210
'23:52.503',0.225
'23:52.506',0.230
'23:52.508',0.235
'23:52.511',0.235
'23:52.514',0.240
'23:52.517',0.225
'23:52.519',0.215
'23:52.522',0.215
'23:52.525',0.210
'23:52.528',0.205
'23:52.531',0.210
'23:52.533',0.205
'23:52.536',0.210
'23:52.539',0.230
'23:52.542',0.240
'23:52.544',0.225
'23:52.547',0.230
'23:52.550',0.225
'23:52.553',0.215
'23:52.556',0.210
'23:52.558',0.200
'23:52.561',0.205
'23:52.564',0.210
'23:52.567',0.210
'23:52.569',0.220
'23:52.572',0.220
'23:52.575',0.235
'23:52.578',0.230
'23:52.581',0.215
'23:52.583',0.220
'23:52.586',0.200
'23:52.589',0.200
'23:52.592',0.190
'23:52.594',0.200
'23:52.597',0.190
'23:52.600',0.195
'23:52.603',0.200
'23:52.606',0.210
'23:52.608',0.220
'23:52.611',0.210
'23:52.614',0.215
'23:52.617',0.205
'23:52.619',0.200
'23:52.622',0.190
'23:52.625',0.185
'23:52.628',0.175
'23:52.631',0.180
'23:52.633',0.195
'23:52.636',0.190
'23:52.639',0.195
'23:52.642',0.205
'23:52.644',0.220
'23:52.647',0.215
'23:52.650',0.215
'23:52.653',0.205
'23:52.656',0.210
'23:52.658',0.210
'23:52.661',0.220
'23:52.664',0.220
'23:52.667',0.245
'23:52.669',0.255
'23:52.672',0.250
'23:52.675',0.250
'23:52.678',0.255
'23:52.681',0.235
'23:52.683',0.220
'23:52.686',0.195
'23:52.689',0.180
'23:52.692',0.170
'23:52.694',0.165
'23:52.697',0.165
'23:52.700',0.160
'23:52.703',0.155
'23:52.706',0.165
'23:52.708',0.165
'23:52.711',0.175
'23:52.714',0.180
'23:52.717',0.180
'23:52.719',0.175
'23:52.722',0.150
'23:52.725',0.150
'23:52.728',0.140
'23:52.731',0.140
'23:52.733',0.160
'23:52.736',0.180
'23:52.739',0.195
'23:52.742',0.210
'23:52.744',0.200
'23:52.747',0.195
'23:52.750',0.180
'23:52.753',0.170
'23:52.756',0.170
'23:52.758',0.165
'23:52.761',0.165
'23:52.764',0.165
'23:52.767',0.170
'23:52.769',0.175
'23:52.772',0.200
'23:52.775',0.200
'23:52.778',0.195
'23:52.781',0.195
'23:52.783',0.195
'23:52.786',0.190
'23:52.789',0.180
'23:52.792',0.185
'23:52.794',0.170
'23:52.797',0.175
'23:52.800',0.195
'23:52.803',0.195
'23:52.806',0.200
'23:52.808',0.210
'23:52.811',0.220
'23:52.814',0.225
'23:52.817',0.210
'23:52.819',0.215
'23:52.822',0.210
'23:52.825',0.215
'23:52.828',0.195
'23:52.831',0.210
'23:52.833',0.230
'23:52.836',0.255
'23:52.839',0.275
'23:52.842',0.325
'23:52.844',0.345
'23:52.847',0.375
'23:52.850',0.375
'23:52.853',0.335
'23:52.856',0.285
'23:52.858',0.245
'23:52.861',0.170
'23:52.864',0.115
'23:52.867',0.070
'23:52.869',0.045
'23:52.872',0.045
'23:52.875',0.060
'23:52.878',0.075
'23:52.881',0.085
'23:52.883',0.080
'23:52.886',0.100
'23:52.889',0.145
'23:52.892',0.230
'23:52.894',0.380
'23:52.897',0.540
'23:52.900',0.700
'23:52.903',0.840
'23:52.906',0.940
'23:52.908',1.005
'23:52.911',1.040
'23:52.914',1.080
'23:52.917',1.105
'23:52.919',1.110
'23:52.922',1.110
'23:52.925',1.050
'23:52.928',0.995
'23:52.931',0.935
'23:52.933',0.850
'23:52.936',0.770
'23:52.939',0.675
'23:52.942',0.580
'23:52.944',0.485
'23:52.947',0.400
'23:52.950',0.335
'23:52.953',0.290
'23:52.956',0.260
'23:52.958',0.240
'23:52.961',0.220
'23:52.964',0.230
'23:52.967',0.220
'23:52.969',0.210
'23:52.972',0.210
'23:52.975',0.210
'23:52.978',0.190
'23:52.981',0.185
'23:52.983',0.175
'23:52.986',0.175
'23:52.989',0.175
'23:52.992',0.155
'23:52.994',0.145
'23:52.997',0.155
'23:53.000',0.170
'23:53.003',0.160
'23:53.006',0.160
'23:53.008',0.165
'23:53.011',0.160
'23:53.014',0.160
'23:53.017',0.155
'23:53.019',0.150
'23:53.022',0.145
'23:53.025',0.135
'23:53.028',0.135
'23:53.031',0.130
'23:53.033',0.135
'23:53.036',0.135
'23:53.039',0.145
'23:53.042',0.135
'23:53.044',0.155
'23:53.047',0.145
'23:53.050',0.140
'23:53.053',0.135
'23:53.056',0.130
'23:53.058',0.125
'23:53.061',0.125
'23:53.064',0.135
'23:53.067',0.120
'23:53.069',0.130
'23:53.072',0.130
'23:53.075',0.140
'23:53.078',0.135
'23:53.081',0.130
'23:53.083',0.130
'23:53.086',0.125
'23:53.089',0.105
'23:53.092',0.095
'23:53.094',0.095
'23:53.097',0.095
'23:53.100',0.095
'23:53.103',0.095
'23:53.106',0.100
'23:53.108',0.110
'23:53.111',0.110
'23:53.114',0.100
'23:53.117',0.105
'23:53.119',0.095
'23:53.122',0.090
'23:53.125',0.080
'23:53.128',0.070
'23:53.131',0.080
'23:53.133',0.075
'23:53.136',0.075
'23:53.139',0.075
'23:53.142',0.090
'23:53.144',0.075
'23:53.147',0.070
'23:53.150',0.065
'23:53.153',0.065
'23:53.156',0.050
'23:53.158',0.050
'23:53.161',0.040
'23:53.164',0.045
'23:53.167',0.035
'23:53.169',0.045
'23:53.172',0.035
'23:53.175',0.035
'23:53.178',0.040
'23:53.181',0.030
'23:53.183',0.020
'23:53.186',0.005
'23:53.189',-0.005
'23:53.192',-0.015
'23:53.194',-0.025
'23:53.197',-0.020
'23:53.200',-0.025
'23:53.203',-0.025
'23:53.206',-0.025
'23:53.208',-0.020
'23:53.211',-0.020
'23:53.214',-0.025
'23:53.217',-0.040
'23:53.219',-0.050
'23:53.222',-0.055
'23:53.225',-0.060
'23:53.228',-0.065
'23:53.231',-0.060
'23:53.233',-0.060
'23:53.236',-0.065
'23:53.239',-0.055
'23:53.242',-0.040
'23:53.244',-0.045
'23:53.247',-0.045
'23:53.250',-0.055
'23:53.253',-0.055
'23:53.256',-0.065
'23:53.258',-0.060
'23:53.261',-0.060
'23:53.264',-0.045
'23:53.267',-0.050
'23:53.269',-0.030
'23:53.272',-0.030
'23:53.275',-0.020
'23:53.278',-0.005
'23:53.281',0.000
'23:53.283',0.010
'23:53.286',0.005
'23:53.289',0.010
'23:53.292',0.010
'23:53.294',0.010
'23:53.297',0.020
'23:53.300',0.030
'23:53.303',0.045
'23:53.306',0.060
'23:53.308',0.080
'23:53.311',0.085
'23:53.314',0.105
'23:53.317',0.110
'23:53.319',0.095
'23:53.322',0.095
'23:53.325',0.115
'23:53.328',0.115
'23:53.331',0.125
'23:53.333',0.130
'23:53.336',0.150
'23:53.339',0.165
'23:53.342',0.170
'23:53.344',0.180
'23:53.347',0.185
'23:53.350',0.180
'23:53.353',0.180
'23:53.356',0.165
'23:53.358',0.175
'23:53.361',0.180
'23:53.364',0.180
'23:53.367',0.180
'23:53.369',0.195
'23:53.372',0.195
'23:53.375',0.210
'23:53.378',0.205
'23:53.381',0.220
'23:53.383',0.210
'23:53.386',0.205
'23:53.389',0.195
'23:53.392',0.190
'23:53.394',0.185
'23:53.397',0.195
'23:53.400',0.200
'23:53.403',0.205
'23:53.406',0.210
'23:53.408',0.200
'23:53.411',0.210
'23:53.414',0.190
'23:53.417',0.205
'23:53.419',0.200
'23:53.422',0.190
'23:53.425',0.180
'23:53.428',0.185
'23:53.431',0.190
'23:53.433',0.190
'23:53.436',0.195
'23:53.439',0.205
'23:53.442',0.210
'23:53.444',0.205
'23:53.447',0.205
'23:53.450',0.205
'23:53.453',0.190
'23:53.456',0.195
'23:53.458',0.185
'23:53.461',0.175
'23:53.464',0.190
'23:53.467',0.185
'23:53.469',0.180
'23:53.472',0.195
'23:53.475',0.205
'23:53.478',0.210
'23:53.481',0.195
'23:53.483',0.200
'23:53.486',0.195
'23:53.489',0.185
'23:53.492',0.180
'23:53.494',0.170
'23:53.497',0.170
'23:53.500',0.190
'23:53.503',0.180
'23:53.506',0.190
'23:53.508',0.205
'23:53.511',0.205
'23:53.514',0.195
'23:53.517',0.195
'23:53.519',0.195
'23:53.522',0.185
'23:53.525',0.180
'23:53.528',0.165
'23:53.531',0.165
'23:53.533',0.180
'23:53.536',0.175
'23:53.539',0.195
'23:53.542',0.195
'23:53.544',0.190
'23:53.547',0.180
'23:53.550',0.190
'23:53.553',0.175
'23:53.556',0.175
'23:53.558',0.180
'23:53.561',0.175
'23:53.564',0.175
'23:53.567',0.180
'23:53.569',0.185
'23:53.572',0.185
'23:53.575',0.210
'23:53.578',0.195
'23:53.581',0.195
'23:53.583',0.185
'23:53.586',0.190
'23:53.589',0.180
'23:53.592',0.165
'23:53.594',0.175
'23:53.597',0.170
'23:53.600',0.175
'23:53.603',0.175
'23:53.606',0.190
'23:53.608',0.195
'23:53.611',0.195
'23:53.614',0.185
'23:53.617',0.185
'23:53.619',0.180
'23:53.622',0.170
'23:53.625',0.175
'23:53.628',0.165
'23:53.631',0.160
'23:53.633',0.170
'23:53.636',0.175
'23:53.639',0.175
'23:53.642',0.175
'23:53.644',0.185
'23:53.647',0.180
'23:53.650',0.185
'23:53.653',0.170
'23:53.656',0.160
'23:53.658',0.155
'23:53.661',0.160
'23:53.664',0.145
'23:53.667',0.165
'23:53.669',0.165
'23:53.672',0.190
'23:53.675',0.180
'23:53.678',0.185
'23:53.681',0.190
'23:53.683',0.200
'23:53.686',0.200
'23:53.689',0.205
'23:53.692',0.205
'23:53.694',0.205
'23:53.697',0.215
'23:53.700',0.230
'23:53.703',0.220
'23:53.706',0.220
'23:53.708',0.205
'23:53.711',0.195
'23:53.714',0.185
'23:53.717',0.165
'23:53.719',0.145
'23:53.722',0.150
'23:53.725',0.125
'23:53.728',0.125
'23:53.731',0.125
'23:53.733',0.125
'23:53.736',0.135
'23:53.739',0.135
'23:53.742',0.145
'23:53.744',0.145
'23:53.747',0.140
'23:53.750',0.130
'23:53.753',0.140
'23:53.756',0.145
'23:53.758',0.150
'23:53.761',0.150
'23:53.764',0.150
'23:53.767',0.155
'23:53.769',0.145
'23:53.772',0.140
'23:53.775',0.150
'23:53.778',0.150
'23:53.781',0.150
'23:53.783',0.155
'23:53.786',0.145
'23:53.789',0.130
'23:53.792',0.125
'23:53.794',0.125
'23:53.797',0.140
'23:53.800',0.135
'23:53.803',0.155
'23:53.806',0.165
'23:53.808',0.165
'23:53.811',0.155
'23:53.814',0.165
'23:53.817',0.165
'23:53.819',0.155
'23:53.822',0.145
'23:53.825',0.130
'23:53.828',0.140
'23:53.831',0.150
'23:53.833',0.155
'23:53.836',0.155
'23:53.839',0.170
'23:53.842',0.200
'23:53.844',0.225
'23:53.847',0.265
'23:53.850',0.300
'23:53.853',0.290
'23:53.856',0.280
'23:53.858',0.250
'23:53.861',0.190
'23:53.864',0.130
'23:53.867',0.075
'23:53.869',0.030
'23:53.872',0.000
'23:53.875',0.000
'23:53.878',0.015
'23:53.881',0.035
'23:53.883',0.040
'23:53.886',0.045
'23:53.889',0.075
'23:53.892',0.165
'23:53.894',0.295
'23:53.897',0.465
'23:53.900',0.655
'23:53.903',0.790
'23:53.906',0.910
'23:53.908',0.975
'23:53.911',1.020
'23:53.914',1.040
'23:53.917',1.045
'23:53.919',1.040
'23:53.922',1.015
'23:53.925',0.965
'23:53.928',0.890
'23:53.931',0.830
'23:53.933',0.745
'23:53.936',0.660
'23:53.939',0.560
'23:53.942',0.475
'23:53.944',0.370
'23:53.947',0.285
'23:53.950',0.245
'23:53.953',0.210
'23:53.956',0.185
'23:53.958',0.180
'23:53.961',0.170
'23:53.964',0.165
'23:53.967',0.155
'23:53.969',0.155
'23:53.972',0.155
'23:53.975',0.170
'23:53.978',0.160
'23:53.981',0.145
'23:53.983',0.140
'23:53.986',0.135
'23:53.989',0.120
'23:53.992',0.125
'23:53.994',0.110
'23:53.997',0.120
'23:54.000',0.110
'23:54.003',0.125
'23:54.006',0.135
'23:54.008',0.140
'23:54.011',0.140
'23:54.014',0.135
'23:54.017',0.130
'23:54.019',0.115
'23:54.022',0.120
'23:54.025',0.110
'23:54.028',0.105
'23:54.031',0.120
'23:54.033',0.100
'23:54.036',0.110
'23:54.039',0.120
'23:54.042',0.130
'23:54.044',0.115
'23:54.047',0.115
'23:54.050',0.120
'23:54.053',0.105
'23:54.056',0.095
'23:54.058',0.095
'23:54.061',0.085
'23:54.064',0.095
'23:54.067',0.080
'23:54.069',0.100
'23:54.072',0.110
'23:54.075',0.105
'23:54.078',0.110
'23:54.081',0.110
'23:54.083',0.110
'23:54.086',0.100
'23:54.089',0.085
'23:54.092',0.080
'23:54.094',0.075
'23:54.097',0.075
'23:54.100',0.065
'23:54.103',0.075
'23:54.106',0.075
'23:54.108',0.080
'23:54.111',0.090
'23:54.114',0.090
'23:54.117',0.075
'23:54.119',0.065
'23:54.122',0.060
'23:54.125',0.060
'23:54.128',0.055
'23:54.131',0.055
'23:54.133',0.050
'23:54.136',0.060
'23:54.139',0.065
'23:54.142',0.055
'23:54.144',0.050
'23:54.147',0.055
'23:54.150',0.040
'23:54.153',0.035
'23:54.156',0.030
'23:54.158',0.020
'23:54.161',0.015
'23:54.164',0.025
'23:54.167',0.025
'23:54.169',0.015
'23:54.172',0.015
'23:54.175',0.025
'23:54.178',0.015
'23:54.181',0.020
'23:54.183',0.015
'23:54.186',0.000
'23:54.189',0.000
'23:54.192',-0.005
'23:54.194',-0.025
'23:54.197',-0.030
'23:54.200',-0.035
'23:54.203',-0.035
'23:54.206',-0.040
'23:54.208',-0.030
'23:54.211',-0.030
'23:54.214',-0.040
'23:54.217',-0.045
'23:54.219',-0.065
'23:54.222',-0.075
'23:54.225',-0.080
'23:54.228',-0.080
'23:54.231',-0.090
'23:54.233',-0.090
'23:54.236',-0.095
'23:54.239',-0.080
'23:54.242',-0.085
'23:54.244',-0.090
'23:54.247',-0.070
'23:54.250',-0.090
'23:54.253',-0.110
'23:54.256',-0.105
'23:54.258',-0.120
'23:54.261',-0.110
'23:54.264',-0.110
'23:54.267',-0.105
'23:54.269',-0.095
'23:54.272',-0.085
'23:54.275',-0.080
'23:54.278',-0.080
'23:54.281',-0.075
'23:54.283',-0.065
'23:54.286',-0.070
'23:54.289',-0.060
'23:54.292',-0.055
'23:54.294',-0.050
'23:54.297',-0.040
'23:54.300',-0.020
'23:54.303',0.000
'23:54.306',0.020
'23:54.308',0.025
'23:54.311',0.025
'23:54.314',0.035
'23:54.317',0.050
'23:54.319',0.060
'23:54.322',0.060
'23:54.325',0.070
'23:54.328',0.065
'23:54.331',0.080
'23:54.333',0.085
'23:54.336',0.110
'23:54.339',0.130
'23:54.342',0.140
'23:54.344',0.135
'23:54.347',0.160
'23:54.350',0.165
'23:54.353',0.160
'23:54.356',0.155
'23:54.358',0.160
'23:54.361',0.160
'23:54.364',0.175
'23:54.367',0.170
'23:54.369',0.185
'23:54.372',0.190
'23:54.375',0.185
'23:54.378',0.200
'23:54.381',0.190
'23:54.383',0.195
'23:54.386',0.185
'23:54.389',0.175
'23:54.392',0.175
'23:54.394',0.165
'23:54.397',0.180
'23:54.400',0.180
'23:54.403',0.175
'23:54.406',0.180
'23:54.408',0.190
'23:54.411',0.185
'23:54.414',0.180
'23:54.417',0.175
'23:54.419',0.170
'23:54.422',0.175
'23:54.425',0.175
'23:54.428',0.170
'23:54.431',0.170
'23:54.433',0.165
'23:54.436',0.170
'23:54.439',0.170
'23:54.442',0.185
'23:54.444',0.175
'23:54.447',0.185
'23:54.450',0.180
'23:54.453',0.175
'23:54.456',0.175
'23:54.458',0.170
'23:54.461',0.155
'23:54.464',0.150
'23:54.467',0.155
'23:54.469',0.165
'23:54.472',0.165
'23:54.475',0.185
'23:54.478',0.180
'23:54.481',0.185
'23:54.483',0.170
'23:54.486',0.175
'23:54.489',0.155
'23:54.492',0.160
'23:54.494',0.160
'23:54.497',0.165
'23:54.500',0.175
'23:54.503',0.175
'23:54.506',0.170
'23:54.508',0.190
'23:54.511',0.190
'23:54.514',0.185
'23:54.517',0.190
'23:54.519',0.175
'23:54.522',0.180
'23:54.525',0.165
'23:54.528',0.165
'23:54.531',0.160
'23:54.533',0.160
'23:54.536',0.160
'23:54.539',0.170
'23:54.542',0.160
'23:54.544',0.175
'23:54.547',0.180
'23:54.550',0.180
'23:54.553',0.175
'23:54.556',0.170
'23:54.558',0.155
'23:54.561',0.165
'23:54.564',0.150
'23:54.567',0.155
'23:54.569',0.170
'23:54.572',0.170
'23:54.575',0.170
'23:54.578',0.175
'23:54.581',0.175
'23:54.583',0.185
'23:54.586',0.170
'23:54.589',0.165
'23:54.592',0.155
'23:54.594',0.165
'23:54.597',0.170
'23:54.600',0.165
'23:54.603',0.175
'23:54.606',0.185
'23:54.608',0.170
'23:54.611',0.185
'23:54.614',0.175
'23:54.617',0.175
'23:54.619',0.175
'23:54.622',0.160
'23:54.625',0.165
'23:54.628',0.180
'23:54.631',0.180
'23:54.633',0.195
'23:54.636',0.205
'23:54.639',0.220
'23:54.642',0.225
'23:54.644',0.225
'23:54.647',0.235
'23:54.650',0.225
'23:54.653',0.205
'23:54.656',0.195
'23:54.658',0.170
'23:54.661',0.165
'23:54.664',0.160
'23:54.667',0.170
'23:54.669',0.165
'23:54.672',0.165
'23:54.675',0.170
'23:54.678',0.155
'23:54.681',0.150
'23:54.683',0.150
'23:54.686',0.145
'23:54.689',0.155
'23:54.692',0.130
'23:54.694',0.125
'23:54.697',0.135
'23:54.700',0.140
'23:54.703',0.155
'23:54.706',0.160
'23:54.708',0.170
'23:54.711',0.190
'23:54.714',0.185
'23:54.717',0.175
'23:54.719',0.170
'23:54.722',0.155
'23:54.725',0.145
'23:54.728',0.150
'23:54.731',0.135
'23:54.733',0.155
'23:54.736',0.155
'23:54.739',0.165
'23:54.742',0.160
'23:54.744',0.165
'23:54.747',0.155
'23:54.750',0.145
'23:54.753',0.140
'23:54.756',0.150
'23:54.758',0.135
'23:54.761',0.140
'23:54.764',0.135
'23:54.767',0.145
'23:54.769',0.150
'23:54.772',0.165
'23:54.775',0.165
'23:54.778',0.170
'23:54.781',0.170
'23:54.783',0.170
'23:54.786',0.175
'23:54.789',0.170
'23:54.792',0.145
'23:54.794',0.170
'23:54.797',0.160
'23:54.800',0.160
'23:54.803',0.185
'23:54.806',0.210
'23:54.808',0.230
'23:54.811',0.265
'23:54.814',0.275
'23:54.817',0.285
'23:54.819',0.275
'23:54.822',0.245
'23:54.825',0.195
'23:54.828',0.130
'23:54.831',0.055
'23:54.833',0.010
'23:54.836',-0.025
'23:54.839',-0.015
'23:54.842',0.020
'23:54.844',0.085
'23:54.847',0.125
'23:54.850',0.165
'23:54.853',0.170
'23:54.856',0.170
'23:54.858',0.230
'23:54.861',0.325
'23:54.864',0.475
'23:54.867',0.615
'23:54.869',0.745
'23:54.872',0.850
'23:54.875',0.930
'23:54.878',0.970
'23:54.881',1.005
'23:54.883',1.035
'23:54.886',1.050
'23:54.889',1.045
'23:54.892',1.010
'23:54.894',0.960
'23:54.897',0.915
'23:54.900',0.865
'23:54.903',0.805
'23:54.906',0.715
'23:54.908',0.615
'23:54.911',0.485
'23:54.914',0.390
'23:54.917',0.305
'23:54.919',0.245
'23:54.922',0.215
'23:54.925',0.190
'23:54.928',0.190
'23:54.931',0.185
'23:54.933',0.185
'23:54.936',0.195
'23:54.939',0.175
'23:54.942',0.175
'23:54.944',0.175
'23:54.947',0.170
'23:54.950',0.165
'23:54.953',0.140
'23:54.956',0.150
'23:54.958',0.140
'23:54.961',0.120
'23:54.964',0.125
'23:54.967',0.120
'23:54.969',0.135
'23:54.972',0.130
'23:54.975',0.135
'23:54.978',0.145
'23:54.981',0.140
'23:54.983',0.135
'23:54.986',0.125
'23:54.989',0.115
'23:54.992',0.105
'23:54.994',0.100
'23:54.997',0.105
'23:55.000',0.105
'23:55.003',0.110
'23:55.006',0.115
'23:55.008',0.110
'23:55.011',0.120
'23:55.014',0.110
'23:55.017',0.105
'23:55.019',0.100
'23:55.022',0.095
'23:55.025',0.095
'23:55.028',0.075
'23:55.031',0.090
'23:55.033',0.085
'23:55.036',0.080
'23:55.039',0.095
'23:55.042',0.090
'23:55.044',0.090
'23:55.047',0.090
'23:55.050',0.080
'23:55.053',0.070
'23:55.056',0.060
'23:55.058',0.055
'23:55.061',0.035
'23:55.064',0.045
'23:55.067',0.050
'23:55.069',0.050
'23:55.072',0.060
'23:55.075',0.050
'23:55.078',0.060
'23:55.081',0.050
'23:55.083',0.045
'23:55.086',0.035
'23:55.089',0.030
'23:55.092',0.015
'23:55.094',0.015
'23:55.097',0.025
'23:55.100',0.030
'23:55.103',0.030
'23:55.106',0.030
'23:55.108',0.035
'23:55.111',0.030
'23:55.114',0.030
'23:55.117',0.030
'23:55.119',0.010
'23:55.122',-0.015
'23:55.125',-0.015
'23:55.128',-0.025
'23:55.131',-0.030
'23:55.133',-0.015
'23:55.136',-0.015
'23:55.139',-0.030
'23:55.142',-0.030
'23:55.144',-0.030
'23:55.147',-0.035
'23:55.150',-0.050
'23:55.153',-0.055
'23:55.156',-0.075
'23:55.158',-0.095
'23:55.161',-0.095
'23:55.164',-0.105
'23:55.167',-0.095
'23:55.169',-0.100
'23:55.172',-0.095
'23:55.175',-0.095
'23:55.178',-0.095
'23:55.181',-0.095
'23:55.183',-0.105
'23:55.186',-0.120
'23:55.189',-0.130
'23:55.192',-0.135
'23:55.194',-0.120
'23:55.197',-0.140
'23:55.200',-0.130
'23:55.203',-0.125
'23:55.206',-0.115
'23:55.208',-0.105
'23:55.211',-0.105
'23:55.214',-0.090
'23:55.217',-0.085
'23:55.219',-0.100
'23:55.222',-0.095
'23:55.225',-0.095
'23:55.228',-0.090
'23:55.231',-0.090
'23:55.233',-0.080
'23:55.236',-0.060
'23:55.239',-0.050
'23:55.242',-0.040
'23:55.244',-0.035
'23:55.247',-0.020
'23:55.250',-0.020
'23:55.253',-0.015
'23:55.256',-0.025
'23:55.258',-0.025
'23:55.261',-0.020
'23:55.264',-0.005
'23:55.267',0.010
'23:55.269',0.035
'23:55.272',0.035
'23:55.275',0.050
'23:55.278',0.065
'23:55.281',0.065
'23:55.283',0.060
'23:55.286',0.065
'23:55.289',0.070
'23:55.292',0.055
'23:55.294',0.060
'23:55.297',0.065
'23:55.300',0.085
'23:55.303',0.085
'23:55.306',0.105
'23:55.308',0.105
'23:55.311',0.110
'23:55.314',0.120
'23:55.317',0.135
'23:55.319',0.115
'23:55.322',0.105
'23:55.325',0.100
'23:55.328',0.090
'23:55.331',0.090
'23:55.333',0.095
'23:55.336',0.115
'23:55.339',0.110
'23:55.342',0.125
'23:55.344',0.125
'23:55.347',0.120
'23:55.350',0.110
'23:55.353',0.115
'23:55.356',0.115
'23:55.358',0.095
'23:55.361',0.080
'23:55.364',0.095
'23:55.367',0.100
'23:55.369',0.105
'23:55.372',0.125
'23:55.375',0.115
'23:55.378',0.130
'23:55.381',0.115
'23:55.383',0.115
'23:55.386',0.110
'23:55.389',0.105
'23:55.392',0.085
'23:55.394',0.095
'23:55.397',0.100
'23:55.400',0.100
'23:55.403',0.110
'23:55.406',0.110
'23:55.408',0.125
'23:55.411',0.125
'23:55.414',0.115
'23:55.417',0.120
'23:55.419',0.115
'23:55.422',0.105
'23:55.425',0.095
'23:55.428',0.100
'23:55.431',0.100
'23:55.433',0.095
'23:55.436',0.105
'23:55.439',0.110
'23:55.442',0.125
'23:55.444',0.130
'23:55.447',0.130
'23:55.450',0.130
'23:55.453',0.100
'23:55.456',0.110
'23:55.458',0.095
'23:55.461',0.105
'23:55.464',0.100
'23:55.467',0.110
'23:55.469',0.110
'23:55.472',0.125
'23:55.475',0.115
'23:55.478',0.115
'23:55.481',0.125
'23:55.483',0.115
'23:55.486',0.115
'23:55.489',0.090
'23:55.492',0.090
'23:55.494',0.095
'23:55.497',0.085
'23:55.500',0.090
'23:55.503',0.105
'23:55.506',0.105
'23:55.508',0.105
'23:55.511',0.110
'23:55.514',0.110
'23:55.517',0.110
'23:55.519',0.100
'23:55.522',0.095
'23:55.525',0.085
'23:55.528',0.075
'23:55.531',0.090
'23:55.533',0.100
'23:55.536',0.090
'23:55.539',0.100
'23:55.542',0.100
'23:55.544',0.120
'23:55.547',0.100
'23:55.550',0.115
'23:55.553',0.095
'23:55.556',0.085
'23:55.558',0.100
'23:55.561',0.090
'23:55.564',0.090
'23:55.567',0.090
'23:55.569',0.105
'23:55.572',0.105
'23:55.575',0.110
'23:55.578',0.115
'23:55.581',0.125
'23:55.583',0.115
'23:55.586',0.105
'23:55.589',0.105
'23:55.592',0.095
'23:55.594',0.095
'23:55.597',0.095
'23:55.600',0.105
'23:55.603',0.115
'23:55.606',0.110
'23:55.608',0.115
'23:55.611',0.135
'23:55.614',0.115
'23:55.617',0.110
'23:55.619',0.115
'23:55.622',0.120
'23:55.625',0.120
'23:55.628',0.135
'23:55.631',0.130
'23:55.633',0.140
'23:55.636',0.155
'23:55.639',0.175
'23:55.642',0.185
'23:55.644',0.180
'23:55.647',0.175
'23:55.650',0.155
'23:55.653',0.130
'23:55.656',0.105
'23:55.658',0.085
'23:55.661',0.080
'23:55.664',0.060
'23:55.667',0.065
'23:55.669',0.070
'23:55.672',0.060
'23:55.675',0.065
'23:55.678',0.080
'23:55.681',0.075
'23:55.683',0.075
'23:55.686',0.070
'23:55.689',0.055
'23:55.692',0.045
'23:55.694',0.050
'23:55.697',0.060
'23:55.700',0.065
'23:55.703',0.085
'23:55.706',0.100
'23:55.708',0.110
'23:55.711',0.105
'23:55.714',0.100
'23:55.717',0.095
'23:55.719',0.085
'23:55.722',0.065
'23:55.725',0.085
'23:55.728',0.070
'23:55.731',0.070
'23:55.733',0.065
'23:55.736',0.075
'23:55.739',0.085
'23:55.742',0.085
'23:55.744',0.095
'23:55.747',0.095
'23:55.750',0.095
'23:55.753',0.080
'23:55.756',0.080
'23:55.758',0.075
'23:55.761',0.065
'23:55.764',0.070
'23:55.767',0.075
'23:55.769',0.085
'23:55.772',0.090
'23:55.775',0.105
'23:55.778',0.105
'23:55.781',0.105
'23:55.783',0.095
'23:55.786',0.105
'23:55.789',0.095
'23:55.792',0.095
'23:55.794',0.095
'23:55.797',0.095
'23:55.800',0.135
'23:55.803',0.165
'23:55.806',0.215
'23:55.808',0.245
'23:55.811',0.255
'23:55.814',0.240
'23:55.817',0.205
'23:55.819',0.155
'23:55.822',0.095
'23:55.825',0.030
'23:55.828',-0.025
'23:55.831',-0.055
'23:55.833',-0.070
'23:55.836',-0.050
'23:55.839',-0.035
'23:55.842',-0.040
'23:55.844',-0.010
'23:55.847',-0.010
'23:55.850',0.025
'23:55.853',0.105
'23:55.856',0.250
'23:55.858',0.395
'23:55.861',0.555
'23:55.864',0.695
'23:55.867',0.795
'23:55.869',0.870
'23:55.872',0.935
'23:55.875',0.950
'23:55.878',0.990
'23:55.881',1.020
'23:55.883',1.015
'23:55.886',0.970
'23:55.889',0.915
'23:55.892',0.840
'23:55.894',0.775
'23:55.897',0.700
'23:55.900',0.615
'23:55.903',0.530
'23:55.906',0.430
'23:55.908',0.340
'23:55.911',0.275
'23:55.914',0.220
'23:55.917',0.190
'23:55.919',0.160
'23:55.922',0.145
'23:55.925',0.130
'23:55.928',0.120
'23:55.931',0.120
'23:55.933',0.125
'23:55.936',0.115
'23:55.939',0.115
'23:55.942',0.120
'23:55.944',0.120
'23:55.947',0.105
'23:55.950',0.100
'23:55.953',0.080
'23:55.956',0.080
'23:55.958',0.065
'23:55.961',0.060
'23:55.964',0.050
'23:55.967',0.050
'23:55.969',0.065
'23:55.972',0.070
'23:55.975',0.065
'23:55.978',0.075
'23:55.981',0.075
'23:55.983',0.065
'23:55.986',0.055
'23:55.989',0.065
'23:55.992',0.040
'23:55.994',0.045
'23:55.997',0.045
'23:56.000',0.040
'23:56.003',0.045
'23:56.006',0.040
'23:56.008',0.065
'23:56.011',0.065
'23:56.014',0.055
'23:56.017',0.065
'23:56.019',0.055
'23:56.022',0.040
'23:56.025',0.035
'23:56.028',0.030
'23:56.031',0.030
'23:56.033',0.040
'23:56.036',0.040
'23:56.039',0.050
'23:56.042',0.045
'23:56.044',0.055
'23:56.047',0.045
'23:56.050',0.055
'23:56.053',0.025
'23:56.056',0.040
'23:56.058',0.030
'23:56.061',0.020
'23:56.064',0.020
'23:56.067',0.020
'23:56.069',0.005
'23:56.072',0.005
'23:56.075',0.020
'23:56.078',0.010
'23:56.081',0.020
'23:56.083',0.020
'23:56.086',0.005
'23:56.089',0.000
'23:56.092',-0.010
'23:56.094',-0.015
'23:56.097',-0.015
'23:56.100',-0.005
'23:56.103',-0.010
'23:56.106',-0.005
'23:56.108',0.000
'23:56.111',0.005
'23:56.114',0.005
'23:56.117',-0.010
'23:56.119',-0.030
'23:56.122',-0.030
'23:56.125',-0.040
'23:56.128',-0.040
'23:56.131',-0.040
'23:56.133',-0.045
'23:56.136',-0.035
'23:56.139',-0.040
'23:56.142',-0.045
'23:56.144',-0.035
'23:56.147',-0.050
'23:56.150',-0.050
'23:56.153',-0.065
'23:56.156',-0.080
'23:56.158',-0.075
'23:56.161',-0.075
'23:56.164',-0.090
'23:56.167',-0.095
'23:56.169',-0.085
'23:56.172',-0.085
'23:56.175',-0.090
'23:56.178',-0.090
'23:56.181',-0.095
'23:56.183',-0.095
'23:56.186',-0.110
'23:56.189',-0.120
'23:56.192',-0.130
'23:56.194',-0.140
'23:56.197',-0.125
'23:56.200',-0.135
'23:56.203',-0.120
'23:56.206',-0.125
'23:56.208',-0.125
'23:56.211',-0.120
'23:56.214',-0.115
'23:56.217',-0.125
'23:56.219',-0.140
'23:56.222',-0.140
'23:56.225',-0.150
'23:56.228',-0.150
'23:56.231',-0.145
'23:56.233',-0.150
'23:56.236',-0.130
'23:56.239',-0.125
'23:56.242',-0.120
'23:56.244',-0.120
'23:56.247',-0.105
'23:56.250',-0.110
'23:56.253',-0.100
'23:56.256',-0.115
'23:56.258',-0.105
'23:56.261',-0.115
'23:56.264',-0.090
'23:56.267',-0.090
'23:56.269',-0.085
'23:56.272',-0.065
'23:56.275',-0.065
'23:56.278',-0.045
'23:56.281',-0.035
'23:56.283',-0.025
'23:56.286',-0.025
'23:56.289',-0.025
'23:56.292',-0.025
'23:56.294',-0.015
'23:56.297',0.005
'23:56.300',0.005
'23:56.303',0.025
'23:56.306',0.055
'23:56.308',0.055
'23:56.311',0.055
'23:56.314',0.070
'23:56.317',0.075
'23:56.319',0.075
'23:56.322',0.065
'23:56.325',0.075
'23:56.328',0.060
'23:56.331',0.070
'23:56.333',0.075
'23:56.336',0.085
'23:56.339',0.095
'23:56.342',0.095
'23:56.344',0.115
'23:56.347',0.120
'23:56.350',0.110
'23:56.353',0.105
'23:56.356',0.105
'23:56.358',0.100
'23:56.361',0.105
'23:56.364',0.100
'23:56.367',0.115
'23:56.369',0.120
'23:56.372',0.110
'23:56.375',0.130
'23:56.378',0.130
'23:56.381',0.120
'23:56.383',0.120
'23:56.386',0.125
'23:56.389',0.120
'23:56.392',0.100
'23:56.394',0.095
'23:56.397',0.105
'23:56.400',0.105
'23:56.403',0.110
'23:56.406',0.125
'23:56.408',0.125
'23:56.411',0.135
'23:56.414',0.120
'23:56.417',0.125
'23:56.419',0.110
'23:56.422',0.105
'23:56.425',0.100
'23:56.428',0.100
'23:56.431',0.105
'23:56.433',0.100
'23:56.436',0.110
'23:56.439',0.115
'23:56.442',0.125
'23:56.444',0.120
'23:56.447',0.120
'23:56.450',0.120
'23:56.453',0.120
'23:56.456',0.100
'23:56.458',0.105
'23:56.461',0.105
'23:56.464',0.100
'23:56.467',0.105
'23:56.469',0.100
'23:56.472',0.125
'23:56.475',0.120
'23:56.478',0.130
'23:56.481',0.130
'23:56.483',0.125
'23:56.486',0.115
'23:56.489',0.105
'23:56.492',0.105
'23:56.494',0.100
'23:56.497',0.095
'23:56.500',0.100
'23:56.503',0.115
'23:56.506',0.120
'23:56.508',0.125
'23:56.511',0.130
'23:56.514',0.120
'23:56.517',0.120
'23:56.519',0.110
'23:56.522',0.115
'23:56.525',0.100
'23:56.528',0.115
'23:56.531',0.100
'23:56.533',0.105
'23:56.536',0.115
'23:56.539',0.110
'23:56.542',0.120
'23:56.544',0.130
'23:56.547',0.120
'23:56.550',0.130
'23:56.553',0.110
'23:56.556',0.095
'23:56.558',0.105
'23:56.561',0.105
'23:56.564',0.105
'23:56.567',0.105
'23:56.569',0.120
'23:56.572',0.120
'23:56.575',0.135
'23:56.578',0.145
'23:56.581',0.125
'23:56.583',0.120
'23:56.586',0.110
'23:56.589',0.115
'23:56.592',0.100
'23:56.594',0.105
'23:56.597',0.120
'23:56.600',0.115
'23:56.603',0.110
'23:56.606',0.130
'23:56.608',0.130
'23:56.611',0.125
'23:56.614',0.140
'23:56.617',0.120
'23:56.619',0.115
'23:56.622',0.120
'23:56.625',0.110
'23:56.628',0.110
'23:56.631',0.105
'23:56.633',0.115
'23:56.636',0.120
'23:56.639',0.125
'23:56.642',0.140
'23:56.644',0.140
'23:56.647',0.160
'23:56.650',0.150
'23:56.653',0.155
'23:56.656',0.140
'23:56.658',0.140
'23:56.661',0.145
'23:56.664',0.145
'23:56.667',0.170
'23:56.669',0.165
'23:56.672',0.185
'23:56.675',0.195
'23:56.678',0.210
'23:56.681',0.180
'23:56.683',0.175
'23:56.686',0.155
'23:56.689',0.135
'23:56.692',0.105
'23:56.694',0.105
'23:56.697',0.100
'23:56.700',0.095
'23:56.703',0.095
'23:56.706',0.105
'23:56.708',0.110
'23:56.711',0.110
'23:56.714',0.115
'23:56.717',0.110
'23:56.719',0.115
'23:56.722',0.100
'23:56.725',0.085
'23:56.728',0.085
'23:56.731',0.090
'23:56.733',0.105
'23:56.736',0.115
'23:56.739',0.145
'23:56.742',0.145
'23:56.744',0.140
'23:56.747',0.130
'23:56.750',0.135
'23:56.753',0.120
'23:56.756',0.115
'23:56.758',0.100
'23:56.761',0.110
'23:56.764',0.120
'23:56.767',0.105
'23:56.769',0.115
'23:56.772',0.125
'23:56.775',0.125
'23:56.778',0.135
'23:56.781',0.135
'23:56.783',0.115
'23:56.786',0.115
'23:56.789',0.100
'23:56.792',0.100
'23:56.794',0.100
'23:56.797',0.100
'23:56.800',0.110
'23:56.803',0.105
'23:56.806',0.115
'23:56.808',0.130
'23:56.811',0.135
'23:56.814',0.140
'23:56.817',0.130
'23:56.819',0.125
'23:56.822',0.135
'23:56.825',0.125
'23:56.828',0.135
'23:56.831',0.155
'23:56.833',0.200
'23:56.836',0.230
'23:56.839',0.265
'23:56.842',0.280
'23:56.844',0.260
'23:56.847',0.240
'23:56.850',0.175
'23:56.853',0.110
'23:56.856',0.050
'23:56.858',-0.015
'23:56.861',-0.045
'23:56.864',-0.045
'23:56.867',-0.030
'23:56.869',-0.010
'23:56.872',0.025
'23:56.875',0.040
'23:56.878',0.075
'23:56.881',0.115
'23:56.883',0.230
'23:56.886',0.365
'23:56.889',0.525
'23:56.892',0.680
'23:56.894',0.800
'23:56.897',0.885
'23:56.900',0.940
'23:56.903',0.985
'23:56.906',1.000
'23:56.908',1.050
'23:56.911',1.050
'23:56.914',1.015
'23:56.917',0.970
'23:56.919',0.905
'23:56.922',0.825
'23:56.925',0.735
'23:56.928',0.615
'23:56.931',0.500
'23:56.933',0.400
'23:56.936',0.315
'23:56.939',0.250
'23:56.942',0.220
'23:56.944',0.210
'23:56.947',0.180
'23:56.950',0.190
'23:56.953',0.190
'23:56.956',0.165
'23:56.958',0.145
'23:56.961',0.130
'23:56.964',0.130
'23:56.967',0.130
'23:56.969',0.130
'23:56.972',0.145
'23:56.975',0.125
'23:56.978',0.140
'23:56.981',0.140
'23:56.983',0.135
'23:56.986',0.115
'23:56.989',0.115
'23:56.992',0.105
'23:56.994',0.100
'23:56.997',0.095
'23:57.000',0.090
'23:57.003',0.100
'23:57.006',0.115
'23:57.008',0.105
'23:57.011',0.115
'23:57.014',0.110
'23:57.017',0.110
'23:57.019',0.105
'23:57.022',0.095
'23:57.025',0.080
'23:57.028',0.065
'23:57.031',0.085
'23:57.033',0.085
'23:57.036',0.095
'23:57.039',0.100
'23:57.042',0.100
'23:57.044',0.095
'23:57.047',0.095
'23:57.050',0.100
'23:57.053',0.085
'23:57.056',0.080
'23:57.058',0.075
'23:57.061',0.070
'23:57.064',0.070
'23:57.067',0.075
'23:57.069',0.080
'23:57.072',0.075
'23:57.075',0.080
'23:57.078',0.080
'23:57.081',0.075
'23:57.083',0.085
'23:57.086',0.060
'23:57.089',0.070
'23:57.092',0.060
'23:57.094',0.050
'23:57.097',0.050
'23:57.100',0.050
'23:57.103',0.060
'23:57.106',0.050
'23:57.108',0.050
'23:57.111',0.060
'23:57.114',0.065
'23:57.117',0.055
'23:57.119',0.045
'23:57.122',0.045
'23:57.125',0.045
'23:57.128',0.035
'23:57.131',0.025
'23:57.133',0.030
'23:57.136',0.030
'23:57.139',0.035
'23:57.142',0.030
'23:57.144',0.045
'23:57.147',0.025
'23:57.150',0.025
'23:57.153',0.020
'23:57.156',0.000
'23:57.158',-0.005
'23:57.161',-0.010
'23:57.164',-0.015
'23:57.167',-0.025
'23:57.169',-0.020
'23:57.172',-0.025
'23:57.175',-0.025
'23:57.178',-0.030
'23:57.181',-0.045
'23:57.183',-0.050
'23:57.186',-0.060
'23:57.189',-0.055
'23:57.192',-0.070
'23:57.194',-0.065
'23:57.197',-0.080
'23:57.200',-0.075
'23:57.203',-0.085
'23:57.206',-0.080
'23:57.208',-0.065
'23:57.211',-0.060
'23:57.214',-0.055
'23:57.217',-0.070
'23:57.219',-0.080
'23:57.222',-0.085
'23:57.225',-0.090
'23:57.228',-0.100
'23:57.231',-0.090
'23:57.233',-0.085
'23:57.236',-0.080
'23:57.239',-0.080
'23:57.242',-0.070
'23:57.244',-0.055
'23:57.247',-0.055
'23:57.250',-0.040
'23:57.253',-0.050
'23:57.256',-0.040
'23:57.258',-0.035
'23:57.261',-0.035
'23:57.264',-0.030
'23:57.267',-0.025
'23:57.269',-0.010
'23:57.272',0.010
'23:57.275',0.030
'23:57.278',0.050
'23:57.281',0.050
'23:57.283',0.055
'23:57.286',0.060
'23:57.289',0.060
'23:57.292',0.075
'23:57.294',0.060
'23:57.297',0.075
'23:57.300',0.090
'23:57.303',0.110
'23:57.306',0.135
'23:57.308',0.145
'23:57.311',0.155
'23:57.314',0.155
'23:57.317',0.165
'23:57.319',0.165
'23:57.322',0.155
'23:57.325',0.155
'23:57.328',0.150
'23:57.331',0.170
'23:57.333',0.180
'23:57.336',0.185
'23:57.339',0.195
'23:57.342',0.200
'23:57.344',0.210
'23:57.347',0.195
'23:57.350',0.195
'23:57.353',0.205
'23:57.356',0.185
'23:57.358',0.185
'23:57.361',0.185
'23:57.364',0.175
'23:57.367',0.180
'23:57.369',0.190
'23:57.372',0.185
'23:57.375',0.200
'23:57.378',0.200
'23:57.381',0.200
'23:57.383',0.195
'23:57.386',0.190
'23:57.389',0.185
'23:57.392',0.170
'23:57.394',0.170
'23:57.397',0.175
'23:57.400',0.185
'23:57.403',0.180
'23:57.406',0.190
'23:57.408',0.190
'23:57.411',0.200
'23:57.414',0.195
'23:57.417',0.190
'23:57.419',0.185
'23:57.422',0.175
'23:57.425',0.185
'23:57.428',0.170
'23:57.431',0.175
'23:57.433',0.175
'23:57.436',0.190
'23:57.439',0.190
'23:57.442',0.195
'23:57.444',0.190
'23:57.447',0.200
'23:57.450',0.195
'23:57.453',0.195
'23:57.456',0.195
'23:57.458',0.195
'23:57.461',0.185
'23:57.464',0.180
'23:57.467',0.190
'23:57.469',0.200
'23:57.472',0.210
'23:57.475',0.195
'23:57.478',0.195
'23:57.481',0.195
'23:57.483',0.210
'23:57.486',0.190
'23:57.489',0.205
'23:57.492',0.200
'23:57.494',0.200
'23:57.497',0.200
'23:57.500',0.190
'23:57.503',0.190
'23:57.506',0.205
'23:57.508',0.210
'23:57.511',0.200
'23:57.514',0.200
'23:57.517',0.200
'23:57.519',0.200
'23:57.522',0.195
'23:57.525',0.190
'23:57.528',0.180
'23:57.531',0.175
'23:57.533',0.180
'23:57.536',0.195
'23:57.539',0.210
'23:57.542',0.215
'23:57.544',0.215
'23:57.547',0.215
'23:57.550',0.205
'23:57.553',0.195
'23:57.556',0.205
'23:57.558',0.180
'23:57.561',0.190
'23:57.564',0.190
'23:57.567',0.185
'23:57.569',0.200
'23:57.572',0.200
'23:57.575',0.210
'23:57.578',0.215
'23:57.581',0.215
'23:57.583',0.220
'23:57.586',0.220
'23:57.589',0.210
'23:57.592',0.200
'23:57.594',0.200
'23:57.597',0.200
'23:57.600',0.210
'23:57.603',0.215
'23:57.606',0.210
'23:57.608',0.225
'23:57.611',0.230
'23:57.614',0.235
'23:57.617',0.235
'23:57.619',0.230
'23:57.622',0.245
'23:57.625',0.240
'23:57.628',0.235
'23:57.631',0.240
'23:57.633',0.240
'23:57.636',0.230
'23:57.639',0.230
'23:57.642',0.230
'23:57.644',0.235
'23:57.647',0.215
'23:57.650',0.215
'23:57.653',0.195
'23:57.656',0.190
'23:57.658',0.190
'23:57.661',0.175
'23:57.664',0.165
'23:57.667',0.165
'23:57.669',0.170
'23:57.672',0.200
'23:57.675',0.210
'23:57.678',0.210
'23:57.681',0.215
'23:57.683',0.215
'23:57.686',0.195
'23:57.689',0.195
'23:57.692',0.195
'23:57.694',0.200
'23:57.697',0.210
'23:57.700',0.210
'23:57.703',0.220
'23:57.706',0.220
'23:57.708',0.210
'23:57.711',0.230
'23:57.714',0.225
'23:57.717',0.225
'23:57.719',0.230
'23:57.722',0.215
'23:57.725',0.210
'23:57.728',0.210
'23:57.731',0.215
'23:57.733',0.215
'23:57.736',0.210
'23:57.739',0.215
'23:57.742',0.220
'23:57.744',0.235
'23:57.747',0.230
'23:57.750',0.235
'23:57.753',0.215
'23:57.756',0.225
'23:57.758',0.205
'23:57.761',0.220
'23:57.764',0.220
'23:57.767',0.215
'23:57.769',0.215
'23:57.772',0.220
'23:57.775',0.230
'23:57.778',0.240
'23:57.781',0.250
'23:57.783',0.240
'23:57.786',0.235
'23:57.789',0.255
'23:57.792',0.255
'23:57.794',0.265
'23:57.797',0.305
'23:57.800',0.330
'23:57.803',0.340
'23:57.806',0.360
'23:57.808',0.360
'23:57.811',0.320
'23:57.814',0.275
'23:57.817',0.220
'23:57.819',0.140
'23:57.822',0.065
'23:57.825',0.050
'23:57.828',0.050
'23:57.831',0.090
'23:57.833',0.145
'23:57.836',0.190
'23:57.839',0.220
'23:57.842',0.240
'23:57.844',0.260
'23:57.847',0.305
'23:57.850',0.405
'23:57.853',0.540
'23:57.856',0.660
'23:57.858',0.765
'23:57.861',0.860
'23:57.864',0.930
'23:57.867',0.980
'23:57.869',1.030
'23:57.872',1.065
'23:57.875',1.080
'23:57.878',1.115
'23:57.881',1.105
'23:57.883',1.085
'23:57.886',1.035
'23:57.889',0.980
'23:57.892',0.920
'23:57.894',0.855
'23:57.897',0.770
'23:57.900',0.665
'23:57.903',0.580
'23:57.906',0.470
'23:57.908',0.385
'23:57.911',0.325
'23:57.914',0.290
'23:57.917',0.255
'23:57.919',0.255
'23:57.922',0.245
'23:57.925',0.235
'23:57.928',0.225
'23:57.931',0.225
'23:57.933',0.220
'23:57.936',0.205
'23:57.939',0.210
'23:57.942',0.205
'23:57.944',0.205
'23:57.947',0.210
'23:57.950',0.195
'23:57.953',0.190
'23:57.956',0.180
'23:57.958',0.175
'23:57.961',0.170
'23:57.964',0.150
'23:57.967',0.165
'23:57.969',0.165
'23:57.972',0.175
'23:57.975',0.180
'23:57.978',0.185
'23:57.981',0.170
'23:57.983',0.175
'23:57.986',0.160
'23:57.989',0.175
'23:57.992',0.160
'23:57.994',0.155
'23:57.997',0.155
'23:58.000',0.150
'23:58.003',0.155
'23:58.006',0.165
'23:58.008',0.160
'23:58.011',0.150
'23:58.014',0.150
'23:58.017',0.140
'23:58.019',0.135
'23:58.022',0.130
'23:58.025',0.130
'23:58.028',0.115
'23:58.031',0.120
'23:58.033',0.120
'23:58.036',0.125
'23:58.039',0.125
'23:58.042',0.145
'23:58.044',0.125
'23:58.047',0.120
'23:58.050',0.115
'23:58.053',0.100
'23:58.056',0.110
'23:58.058',0.095
'23:58.061',0.090
'23:58.064',0.100
'23:58.067',0.095
'23:58.069',0.095
'23:58.072',0.100
'23:58.075',0.110
'23:58.078',0.110
'23:58.081',0.110
'23:58.083',0.105
'23:58.086',0.095
'23:58.089',0.075
'23:58.092',0.075
'23:58.094',0.070
'23:58.097',0.055
'23:58.100',0.065
'23:58.103',0.060
'23:58.106',0.070
'23:58.108',0.070
'23:58.111',0.070
'23:58.114',0.065
'23:58.117',0.055
'23:58.119',0.045
'23:58.122',0.035
'23:58.125',0.025
'23:58.128',0.030
'23:58.131',0.030
'23:58.133',0.025
'23:58.136',0.015
'23:58.139',0.015
'23:58.142',0.020
'23:58.144',0.020
'23:58.147',0.010
'23:58.150',0.010
'23:58.153',-0.005
'23:58.156',-0.030
'23:58.158',-0.030
'23:58.161',-0.040
'23:58.164',-0.055
'23:58.167',-0.045
'23:58.169',-0.050
'23:58.172',-0.045
'23:58.175',-0.055
'23:58.178',-0.055
'23:58.181',-0.055
'23:58.183',-0.075
'23:58.186',-0.075
'23:58.189',-0.075
'23:58.192',-0.090
'23:58.194',-0.095
'23:58.197',-0.100
'23:58.200',-0.095
'23:58.203',-0.085
'23:58.206',-0.080
'23:58.208',-0.080
'23:58.211',-0.070
'23:58.214',-0.070
'23:58.217',-0.065
'23:58.219',-0.080
'23:58.222',-0.080
'23:58.225',-0.080
'23:58.228',-0.090
'23:58.231',-0.085
'23:58.233',-0.080
'23:58.236',-0.060
'23:58.239',-0.055
'23:58.242',-0.050
'23:58.244',-0.040
'23:58.247',-0.030
'23:58.250',-0.015
'23:58.253',-0.010
'23:58.256',-0.005
'23:58.258',0.000
'23:58.261',-0.010
'23:58.264',0.005
'23:58.267',0.020
'23:58.269',0.025
'23:58.272',0.040
'23:58.275',0.055
'23:58.278',0.065
'23:58.281',0.070
'23:58.283',0.085
'23:58.286',0.080
'23:58.289',0.075
'23:58.292',0.075
'23:58.294',0.080
'23:58.297',0.095
'23:58.300',0.095
'23:58.303',0.105
'23:58.306',0.110
'23:58.308',0.115
'23:58.311',0.120
'23:58.314',0.130
'23:58.317',0.125
'23:58.319',0.135
'23:58.322',0.125
'23:58.325',0.125
'23:58.328',0.115
'23:58.331',0.115
'23:58.333',0.115
'23:58.336',0.135
'23:58.339',0.135
'23:58.342',0.145
