'Elapsed time','V1'
'hh:mm:ss.mmm','mV'
'17:40.000',0.135
'17:40.003',0.090
'17:40.006',0.045
'17:40.008',-0.010
'17:40.011',-0.075
'17:40.014',-0.140
'17:40.017',-0.240
'17:40.019',-0.345
'17:40.022',-0.440
'17:40.025',-0.545
'17:40.028',-0.595
'17:40.031',-0.665
'17:40.033',-0.735
'17:40.036',-0.775
'17:40.039',-0.840
'17:40.042',-0.880
'17:40.044',-0.920
'17:40.047',-0.945
'17:40.050',-0.985
'17:40.053',-1.030
'17:40.056',-1.080
'17:40.058',-1.125
'17:40.061',-1.150
'17:40.064',-1.150
'17:40.067',-1.180
'17:40.069',-1.225
'17:40.072',-1.260
'17:40.075',-1.285
'17:40.078',-1.280
'17:40.081',-1.260
'17:40.083',-1.215
'17:40.086',-1.160
'17:40.089',-1.100
'17:40.092',-1.025
'17:40.094',-0.920
'17:40.097',-0.755
'17:40.100',-0.555
'17:40.103',-0.390
'17:40.106',-0.235
'17:40.108',-0.115
'17:40.111',-0.025
'17:40.114',0.065
'17:40.117',0.090
'17:40.119',0.115
'17:40.122',0.135
'17:40.125',0.155
'17:40.128',0.190
'17:40.131',0.220
'17:40.133',0.235
'17:40.136',0.240
'17:40.139',0.265
'17:40.142',0.255
'17:40.144',0.280
'17:40.147',0.285
'17:40.150',0.310
'17:40.153',0.290
'17:40.156',0.290
'17:40.158',0.295
'17:40.161',0.310
'17:40.164',0.340
'17:40.167',0.345
'17:40.169',0.335
'17:40.172',0.325
'17:40.175',0.320
'17:40.178',0.330
'17:40.181',0.350
'17:40.183',0.365
'17:40.186',0.360
'17:40.189',0.355
'17:40.192',0.360
'17:40.194',0.370
'17:40.197',0.385
'17:40.200',0.390
'17:40.203',0.375
'17:40.206',0.375
'17:40.208',0.400
'17:40.211',0.415
'17:40.214',0.430
'17:40.217',0.440
'17:40.219',0.435
'17:40.222',0.445
'17:40.225',0.450
'17:40.228',0.460
'17:40.231',0.475
'17:40.233',0.495
'17:40.236',0.475
'17:40.239',0.465
'17:40.242',0.485
'17:40.244',0.500
'17:40.247',0.515
'17:40.250',0.510
'17:40.253',0.500
'17:40.256',0.500
'17:40.258',0.500
'17:40.261',0.515
'17:40.264',0.535
'17:40.267',0.540
'17:40.269',0.525
'17:40.272',0.505
'17:40.275',0.510
'17:40.278',0.495
'17:40.281',0.515
'17:40.283',0.505
'17:40.286',0.490
'17:40.289',0.475
'17:40.292',0.460
'17:40.294',0.465
'17:40.297',0.470
'17:40.300',0.460
'17:40.303',0.435
'17:40.306',0.415
'17:40.308',0.390
'17:40.311',0.380
'17:40.314',0.360
'17:40.317',0.350
'17:40.319',0.325
'17:40.322',0.295
'17:40.325',0.280
'17:40.328',0.265
'17:40.331',0.260
'17:40.333',0.235
'17:40.336',0.200
'17:40.339',0.185
'17:40.342',0.175
'17:40.344',0.170
'17:40.347',0.180
'17:40.350',0.165
'17:40.353',0.140
'17:40.356',0.120
'17:40.358',0.110
'17:40.361',0.125
'17:40.364',0.125
'17:40.367',0.130
'17:40.369',0.120
'17:40.372',0.100
'17:40.375',0.100
'17:40.378',0.120
'17:40.381',0.135
'17:40.383',0.140
'17:40.386',0.110
'17:40.389',0.115
'17:40.392',0.105
'17:40.394',0.115
'17:40.397',0.135
'17:40.400',0.130
'17:40.403',0.120
'17:40.406',0.105
'17:40.408',0.105
'17:40.411',0.120
'17:40.414',0.135
'17:40.417',0.135
'17:40.419',0.115
'17:40.422',0.095
'17:40.425',0.115
'17:40.428',0.125
'17:40.431',0.135
'17:40.433',0.115
'17:40.436',0.105
'17:40.439',0.100
'17:40.442',0.100
'17:40.444',0.115
'17:40.447',0.125
'17:40.450',0.125
'17:40.453',0.120
'17:40.456',0.105
'17:40.458',0.115
'17:40.461',0.130
'17:40.464',0.140
'17:40.467',0.150
'17:40.469',0.130
'17:40.472',0.120
'17:40.475',0.105
'17:40.478',0.110
'17:40.481',0.105
'17:40.483',0.095
'17:40.486',0.065
'17:40.489',0.025
'17:40.492',0.000
'17:40.494',-0.010
'17:40.497',-0.035
'17:40.500',-0.070
'17:40.503',-0.115
'17:40.506',-0.165
'17:40.508',-0.210
'17:40.511',-0.245
'17:40.514',-0.305
'17:40.517',-0.375
'17:40.519',-0.460
'17:40.522',-0.535
'17:40.525',-0.580
'17:40.528',-0.630
'17:40.531',-0.655
'17:40.533',-0.695
'17:40.536',-0.740
'17:40.539',-0.790
'17:40.542',-0.840
'17:40.544',-0.870
'17:40.547',-0.885
'17:40.550',-0.900
'17:40.553',-0.915
'17:40.556',-0.910
'17:40.558',-0.910
'17:40.561',-0.890
'17:40.564',-0.855
'17:40.567',-0.825
'17:40.569',-0.795
'17:40.572',-0.755
'17:40.575',-0.710
'17:40.578',-0.650
'17:40.581',-0.585
'17:40.583',-0.520
'17:40.586',-0.485
'17:40.589',-0.465
'17:40.592',-0.435
'17:40.594',-0.415
'17:40.597',-0.385
'17:40.600',-0.375
'17:40.603',-0.375
'17:40.606',-0.375
'17:40.608',-0.360
'17:40.611',-0.335
'17:40.614',-0.305
'17:40.617',-0.300
'17:40.619',-0.280
'17:40.622',-0.260
'17:40.625',-0.205
'17:40.628',-0.110
'17:40.631',-0.010
'17:40.633',0.080
'17:40.636',0.135
'17:40.639',0.180
'17:40.642',0.210
'17:40.644',0.240
'17:40.647',0.270
'17:40.650',0.270
'17:40.653',0.265
'17:40.656',0.260
'17:40.658',0.255
'17:40.661',0.245
'17:40.664',0.265
'17:40.667',0.255
'17:40.669',0.250
'17:40.672',0.230
'17:40.675',0.245
'17:40.678',0.270
'17:40.681',0.305
'17:40.683',0.310
'17:40.686',0.295
'17:40.689',0.295
'17:40.692',0.300
'17:40.694',0.320
'17:40.697',0.345
'17:40.700',0.345
'17:40.703',0.340
'17:40.706',0.345
'17:40.708',0.350
'17:40.711',0.360
'17:40.714',0.395
'17:40.717',0.410
'17:40.719',0.400
'17:40.722',0.390
'17:40.725',0.400
'17:40.728',0.405
'17:40.731',0.420
'17:40.733',0.430
'17:40.736',0.435
'17:40.739',0.420
'17:40.742',0.435
'17:40.744',0.445
'17:40.747',0.470
'17:40.750',0.470
'17:40.753',0.460
'17:40.756',0.455
'17:40.758',0.455
'17:40.761',0.470
'17:40.764',0.480
'17:40.767',0.495
'17:40.769',0.480
'17:40.772',0.475
'17:40.775',0.480
'17:40.778',0.480
'17:40.781',0.490
'17:40.783',0.470
'17:40.786',0.455
'17:40.789',0.450
'17:40.792',0.440
'17:40.794',0.455
'17:40.797',0.450
'17:40.800',0.440
'17:40.803',0.420
'17:40.806',0.385
'17:40.808',0.380
'17:40.811',0.375
'17:40.814',0.370
'17:40.817',0.350
'17:40.819',0.330
'17:40.822',0.300
'17:40.825',0.285
'17:40.828',0.280
'17:40.831',0.275
'17:40.833',0.265
'17:40.836',0.240
'17:40.839',0.210
'17:40.842',0.210
'17:40.844',0.195
'17:40.847',0.210
'17:40.850',0.190
'17:40.853',0.190
'17:40.856',0.170
'17:40.858',0.160
'17:40.861',0.165
'17:40.864',0.165
'17:40.867',0.160
'17:40.869',0.160
'17:40.872',0.140
'17:40.875',0.145
'17:40.878',0.155
'17:40.881',0.170
'17:40.883',0.155
'17:40.886',0.155
'17:40.889',0.125
'17:40.892',0.140
'17:40.894',0.165
'17:40.897',0.190
'17:40.900',0.185
'17:40.903',0.175
'17:40.906',0.150
'17:40.908',0.145
'17:40.911',0.160
'17:40.914',0.175
'17:40.917',0.175
'17:40.919',0.175
'17:40.922',0.165
'17:40.925',0.150
'17:40.928',0.150
'17:40.931',0.155
'17:40.933',0.145
'17:40.936',0.145
'17:40.939',0.150
'17:40.942',0.160
'17:40.944',0.175
'17:40.947',0.170
'17:40.950',0.160
'17:40.953',0.145
'17:40.956',0.130
'17:40.958',0.120
'17:40.961',0.145
'17:40.964',0.155
'17:40.967',0.150
'17:40.969',0.135
'17:40.972',0.120
'17:40.975',0.125
'17:40.978',0.140
'17:40.981',0.155
'17:40.983',0.155
'17:40.986',0.160
'17:40.989',0.130
'17:40.992',0.115
'17:40.994',0.125
'17:40.997',0.135
'17:41.000',0.140
'17:41.003',0.135
'17:41.006',0.140
'17:41.008',0.130
'17:41.011',0.145
'17:41.014',0.145
'17:41.017',0.135
'17:41.019',0.105
'17:41.022',0.085
'17:41.025',0.075
'17:41.028',0.105
'17:41.031',0.130
'17:41.033',0.140
'17:41.036',0.130
'17:41.039',0.130
'17:41.042',0.120
'17:41.044',0.115
'17:41.047',0.120
'17:41.050',0.130
'17:41.053',0.110
'17:41.056',0.100
'17:41.058',0.100
'17:41.061',0.110
'17:41.064',0.110
'17:41.067',0.115
'17:41.069',0.090
'17:41.072',0.080
'17:41.075',0.075
'17:41.078',0.090
'17:41.081',0.115
'17:41.083',0.130
'17:41.086',0.105
'17:41.089',0.080
'17:41.092',0.075
'17:41.094',0.080
'17:41.097',0.095
'17:41.100',0.095
'17:41.103',0.095
'17:41.106',0.080
'17:41.108',0.090
'17:41.111',0.095
'17:41.114',0.100
'17:41.117',0.095
'17:41.119',0.085
'17:41.122',0.075
'17:41.125',0.090
'17:41.128',0.090
'17:41.131',0.100
'17:41.133',0.105
'17:41.136',0.085
'17:41.139',0.080
'17:41.142',0.075
'17:41.144',0.085
'17:41.147',0.100
'17:41.150',0.095
'17:41.153',0.080
'17:41.156',0.060
'17:41.158',0.075
'17:41.161',0.090
'17:41.164',0.110
'17:41.167',0.090
'17:41.169',0.075
'17:41.172',0.055
'17:41.175',0.055
'17:41.178',0.070
'17:41.181',0.095
'17:41.183',0.100
'17:41.186',0.085
'17:41.189',0.080
'17:41.192',0.070
'17:41.194',0.070
'17:41.197',0.065
'17:41.200',0.075
'17:41.203',0.085
'17:41.206',0.080
'17:41.208',0.075
'17:41.211',0.075
'17:41.214',0.075
'17:41.217',0.070
'17:41.219',0.060
'17:41.222',0.050
'17:41.225',0.055
'17:41.228',0.080
'17:41.231',0.100
'17:41.233',0.105
'17:41.236',0.100
'17:41.239',0.075
'17:41.242',0.055
'17:41.244',0.060
'17:41.247',0.060
'17:41.250',0.065
'17:41.253',0.070
'17:41.256',0.065
'17:41.258',0.065
'17:41.261',0.065
'17:41.264',0.080
'17:41.267',0.080
'17:41.269',0.070
'17:41.272',0.055
'17:41.275',0.045
'17:41.278',0.055
'17:41.281',0.065
'17:41.283',0.075
'17:41.286',0.060
'17:41.289',0.050
'17:41.292',0.060
'17:41.294',0.070
'17:41.297',0.085
'17:41.300',0.080
'17:41.303',0.070
'17:41.306',0.050
'17:41.308',0.060
'17:41.311',0.055
'17:41.314',0.080
'17:41.317',0.055
'17:41.319',0.035
'17:41.322',0.045
'17:41.325',0.045
'17:41.328',0.050
'17:41.331',0.065
'17:41.333',0.065
'17:41.336',0.080
'17:41.339',0.055
'17:41.342',0.050
'17:41.344',0.050
'17:41.347',0.070
'17:41.350',0.065
'17:41.353',0.065
'17:41.356',0.040
'17:41.358',0.065
'17:41.361',0.065
'17:41.364',0.080
'17:41.367',0.090
'17:41.369',0.070
'17:41.372',0.060
'17:41.375',0.040
'17:41.378',0.065
'17:41.381',0.075
'17:41.383',0.085
'17:41.386',0.080
'17:41.389',0.040
'17:41.392',0.045
'17:41.394',0.050
'17:41.397',0.060
'17:41.400',0.065
'17:41.403',0.065
'17:41.406',0.035
'17:41.408',0.035
'17:41.411',0.060
'17:41.414',0.065
'17:41.417',0.075
'17:41.419',0.075
'17:41.422',0.060
'17:41.425',0.060
'17:41.428',0.075
'17:41.431',0.095
'17:41.433',0.080
'17:41.436',0.060
'17:41.439',0.055
'17:41.442',0.055
'17:41.444',0.060
'17:41.447',0.045
'17:41.450',0.020
'17:41.453',-0.020
'17:41.456',-0.045
'17:41.458',-0.050
'17:41.461',-0.030
'17:41.464',-0.015
'17:41.467',-0.015
'17:41.469',-0.020
'17:41.472',-0.030
'17:41.475',-0.040
'17:41.478',-0.025
'17:41.481',-0.005
'17:41.483',0.000
'17:41.486',-0.020
'17:41.489',-0.020
'17:41.492',-0.015
'17:41.494',0.005
'17:41.497',0.025
'17:41.500',0.020
'17:41.503',0.010
'17:41.506',0.000
'17:41.508',-0.005
'17:41.511',0.015
'17:41.514',0.035
'17:41.517',0.030
'17:41.519',0.020
'17:41.522',0.000
'17:41.525',0.005
'17:41.528',0.015
'17:41.531',0.040
'17:41.533',0.035
'17:41.536',0.010
'17:41.539',0.000
'17:41.542',-0.010
'17:41.544',-0.005
'17:41.547',0.015
'17:41.550',0.015
'17:41.553',0.005
'17:41.556',-0.005
'17:41.558',-0.010
'17:41.561',-0.025
'17:41.564',-0.020
'17:41.567',-0.010
'17:41.569',-0.040
'17:41.572',-0.080
'17:41.575',-0.150
'17:41.578',-0.230
'17:41.581',-0.275
'17:41.583',-0.320
'17:41.586',-0.360
'17:41.589',-0.365
'17:41.592',-0.370
'17:41.594',-0.330
'17:41.597',-0.235
'17:41.600',-0.125
'17:41.603',-0.025
'17:41.606',0.055
'17:41.608',0.075
'17:41.611',0.060
'17:41.614',0.035
'17:41.617',0.000
'17:41.619',-0.010
'17:41.622',-0.025
'17:41.625',0.000
'17:41.628',0.020
'17:41.631',0.045
'17:41.633',0.040
'17:41.636',0.045
'17:41.639',0.025
'17:41.642',0.025
'17:41.644',0.040
'17:41.647',0.055
'17:41.650',0.050
'17:41.653',0.035
'17:41.656',0.030
'17:41.658',0.025
'17:41.661',0.035
'17:41.664',0.040
'17:41.667',0.050
'17:41.669',0.035
'17:41.672',0.025
'17:41.675',0.025
'17:41.678',0.030
'17:41.681',0.035
'17:41.683',0.030
'17:41.686',0.030
'17:41.689',0.015
'17:41.692',0.015
'17:41.694',0.015
'17:41.697',0.025
'17:41.700',0.025
'17:41.703',0.010
'17:41.706',0.000
'17:41.708',-0.005
'17:41.711',0.010
'17:41.714',0.020
'17:41.717',0.035
'17:41.719',0.010
'17:41.722',-0.010
'17:41.725',-0.025
'17:41.728',-0.020
'17:41.731',-0.015
'17:41.733',-0.015
'17:41.736',-0.025
'17:41.739',-0.030
'17:41.742',-0.035
'17:41.744',-0.030
'17:41.747',-0.020
'17:41.750',-0.030
'17:41.753',-0.035
'17:41.756',-0.070
'17:41.758',-0.070
'17:41.761',-0.075
'17:41.764',-0.065
'17:41.767',-0.070
'17:41.769',-0.090
'17:41.772',-0.095
'17:41.775',-0.105
'17:41.778',-0.110
'17:41.781',-0.120
'17:41.783',-0.120
'17:41.786',-0.125
'17:41.789',-0.145
'17:41.792',-0.160
'17:41.794',-0.155
'17:41.797',-0.150
'17:41.800',-0.160
'17:41.803',-0.185
'17:41.806',-0.205
'17:41.808',-0.225
'17:41.811',-0.225
'17:41.814',-0.220
'17:41.817',-0.235
'17:41.819',-0.255
'17:41.822',-0.250
'17:41.825',-0.260
'17:41.828',-0.260
'17:41.831',-0.245
'17:41.833',-0.255
'17:41.836',-0.270
'17:41.839',-0.280
'17:41.842',-0.265
'17:41.844',-0.265
'17:41.847',-0.240
'17:41.850',-0.260
'17:41.853',-0.245
'17:41.856',-0.245
'17:41.858',-0.255
'17:41.861',-0.225
'17:41.864',-0.200
'17:41.867',-0.190
'17:41.869',-0.160
'17:41.872',-0.165
'17:41.875',-0.155
'17:41.878',-0.130
'17:41.881',-0.105
'17:41.883',-0.080
'17:41.886',-0.075
'17:41.889',-0.075
'17:41.892',-0.070
'17:41.894',-0.035
'17:41.897',-0.015
'17:41.900',0.000
'17:41.903',0.005
'17:41.906',0.010
'17:41.908',0.005
'17:41.911',0.020
'17:41.914',0.045
'17:41.917',0.055
'17:41.919',0.035
'17:41.922',0.025
'17:41.925',0.030
'17:41.928',0.050
'17:41.931',0.070
'17:41.933',0.080
'17:41.936',0.070
'17:41.939',0.065
'17:41.942',0.055
'17:41.944',0.070
'17:41.947',0.060
'17:41.950',0.060
'17:41.953',0.035
'17:41.956',0.045
'17:41.958',0.050
'17:41.961',0.050
'17:41.964',0.060
'17:41.967',0.055
'17:41.969',0.055
'17:41.972',0.050
'17:41.975',0.040
'17:41.978',0.040
'17:41.981',0.075
'17:41.983',0.060
'17:41.986',0.055
'17:41.989',0.045
'17:41.992',0.040
'17:41.994',0.055
'17:41.997',0.050
'17:42.000',0.065
'17:42.003',0.055
'17:42.006',0.030
'17:42.008',0.020
'17:42.011',0.020
'17:42.014',0.040
'17:42.017',0.040
'17:42.019',0.030
'17:42.022',0.030
'17:42.025',0.025
'17:42.028',0.045
'17:42.031',0.060
'17:42.033',0.055
'17:42.036',0.035
'17:42.039',0.030
'17:42.042',0.030
'17:42.044',0.025
'17:42.047',0.055
'17:42.050',0.055
'17:42.053',0.060
'17:42.056',0.065
'17:42.058',0.050
'17:42.061',0.055
'17:42.064',0.060
'17:42.067',0.050
'17:42.069',0.045
'17:42.072',0.035
'17:42.075',0.030
'17:42.078',0.030
'17:42.081',0.025
'17:42.083',-0.015
'17:42.086',-0.100
'17:42.089',-0.185
'17:42.092',-0.235
'17:42.094',-0.295
'17:42.097',-0.320
'17:42.100',-0.390
'17:42.103',-0.490
'17:42.106',-0.590
'17:42.108',-0.680
'17:42.111',-0.730
'17:42.114',-0.775
'17:42.117',-0.805
'17:42.119',-0.835
'17:42.122',-0.865
'17:42.125',-0.890
'17:42.128',-0.900
'17:42.131',-0.910
'17:42.133',-0.945
'17:42.136',-1.000
'17:42.139',-1.070
'17:42.142',-1.090
'17:42.144',-1.065
'17:42.147',-1.010
'17:42.150',-0.975
'17:42.153',-0.915
'17:42.156',-0.855
'17:42.158',-0.785
'17:42.161',-0.705
'17:42.164',-0.620
'17:42.167',-0.530
'17:42.169',-0.450
'17:42.172',-0.410
'17:42.175',-0.365
'17:42.178',-0.335
'17:42.181',-0.300
'17:42.183',-0.290
'17:42.186',-0.285
'17:42.189',-0.300
'17:42.192',-0.305
'17:42.194',-0.305
'17:42.197',-0.295
'17:42.200',-0.265
'17:42.203',-0.240
'17:42.206',-0.200
'17:42.208',-0.120
'17:42.211',-0.030
'17:42.214',0.080
'17:42.217',0.120
'17:42.219',0.180
'17:42.222',0.195
'17:42.225',0.215
'17:42.228',0.235
'17:42.231',0.260
'17:42.233',0.270
'17:42.236',0.280
'17:42.239',0.290
'17:42.242',0.305
'17:42.244',0.315
'17:42.247',0.345
'17:42.250',0.330
'17:42.253',0.335
'17:42.256',0.325
'17:42.258',0.335
'17:42.261',0.355
'17:42.264',0.375
'17:42.267',0.390
'17:42.269',0.380
'17:42.272',0.375
'17:42.275',0.385
'17:42.278',0.405
'17:42.281',0.420
'17:42.283',0.445
'17:42.286',0.450
'17:42.289',0.450
'17:42.292',0.460
'17:42.294',0.465
'17:42.297',0.490
'17:42.300',0.505
'17:42.303',0.515
'17:42.306',0.510
'17:42.308',0.510
'17:42.311',0.525
'17:42.314',0.540
'17:42.317',0.555
'17:42.319',0.550
'17:42.322',0.545
'17:42.325',0.530
'17:42.328',0.520
'17:42.331',0.545
'17:42.333',0.555
'17:42.336',0.550
'17:42.339',0.540
'17:42.342',0.505
'17:42.344',0.500
'17:42.347',0.505
'17:42.350',0.495
'17:42.353',0.495
'17:42.356',0.465
'17:42.358',0.455
'17:42.361',0.450
'17:42.364',0.440
'17:42.367',0.430
'17:42.369',0.390
'17:42.372',0.370
'17:42.375',0.325
'17:42.378',0.310
'17:42.381',0.285
'17:42.383',0.250
'17:42.386',0.215
'17:42.389',0.190
'17:42.392',0.180
'17:42.394',0.180
'17:42.397',0.180
'17:42.400',0.165
'17:42.403',0.155
'17:42.406',0.130
'17:42.408',0.100
'17:42.411',0.100
'17:42.414',0.115
'17:42.417',0.105
'17:42.419',0.090
'17:42.422',0.070
'17:42.425',0.075
'17:42.428',0.070
'17:42.431',0.090
'17:42.433',0.085
'17:42.436',0.095
'17:42.439',0.085
'17:42.442',0.060
'17:42.444',0.090
'17:42.447',0.105
'17:42.450',0.125
'17:42.453',0.110
'17:42.456',0.080
'17:42.458',0.065
'17:42.461',0.080
'17:42.464',0.105
'17:42.467',0.105
'17:42.469',0.105
'17:42.472',0.085
'17:42.475',0.085
'17:42.478',0.090
'17:42.481',0.115
'17:42.483',0.130
'17:42.486',0.120
'17:42.489',0.120
'17:42.492',0.110
'17:42.494',0.115
'17:42.497',0.115
'17:42.500',0.105
'17:42.503',0.100
'17:42.506',0.080
'17:42.508',0.085
'17:42.511',0.110
'17:42.514',0.130
'17:42.517',0.135
'17:42.519',0.110
'17:42.522',0.090
'17:42.525',0.075
'17:42.528',0.100
'17:42.531',0.125
'17:42.533',0.115
'17:42.536',0.110
'17:42.539',0.105
'17:42.542',0.105
'17:42.544',0.105
'17:42.547',0.120
'17:42.550',0.105
'17:42.553',0.110
'17:42.556',0.085
'17:42.558',0.095
'17:42.561',0.100
'17:42.564',0.120
'17:42.567',0.115
'17:42.569',0.110
'17:42.572',0.105
'17:42.575',0.100
'17:42.578',0.110
'17:42.581',0.130
'17:42.583',0.125
'17:42.586',0.085
'17:42.589',0.075
'17:42.592',0.085
'17:42.594',0.105
'17:42.597',0.120
'17:42.600',0.120
'17:42.603',0.105
'17:42.606',0.085
'17:42.608',0.090
'17:42.611',0.095
'17:42.614',0.115
'17:42.617',0.110
'17:42.619',0.105
'17:42.622',0.110
'17:42.625',0.095
'17:42.628',0.100
'17:42.631',0.100
'17:42.633',0.090
'17:42.636',0.080
'17:42.639',0.065
'17:42.642',0.060
'17:42.644',0.070
'17:42.647',0.080
'17:42.650',0.090
'17:42.653',0.085
'17:42.656',0.065
'17:42.658',0.070
'17:42.661',0.080
'17:42.664',0.110
'17:42.667',0.110
'17:42.669',0.100
'17:42.672',0.070
'17:42.675',0.055
'17:42.678',0.065
'17:42.681',0.085
'17:42.683',0.115
'17:42.686',0.105
'17:42.689',0.075
'17:42.692',0.060
'17:42.694',0.070
'17:42.697',0.090
'17:42.700',0.085
'17:42.703',0.060
'17:42.706',0.050
'17:42.708',0.020
'17:42.711',0.025
'17:42.714',0.030
'17:42.717',0.025
'17:42.719',0.020
'17:42.722',0.005
'17:42.725',-0.010
'17:42.728',0.000
'17:42.731',0.025
'17:42.733',0.015
'17:42.736',0.005
'17:42.739',-0.005
'17:42.742',-0.005
'17:42.744',0.025
'17:42.747',0.050
'17:42.750',0.075
'17:42.753',0.060
'17:42.756',0.045
'17:42.758',0.030
'17:42.761',0.050
'17:42.764',0.075
'17:42.767',0.070
'17:42.769',0.070
'17:42.772',0.045
'17:42.775',0.035
'17:42.778',0.045
'17:42.781',0.050
'17:42.783',0.040
'17:42.786',0.040
'17:42.789',0.045
'17:42.792',0.050
'17:42.794',0.065
'17:42.797',0.070
'17:42.800',0.065
'17:42.803',0.060
'17:42.806',0.045
'17:42.808',0.040
'17:42.811',0.030
'17:42.814',0.045
'17:42.817',0.060
'17:42.819',0.040
'17:42.822',0.025
'17:42.825',0.005
'17:42.828',0.005
'17:42.831',0.000
'17:42.833',-0.045
'17:42.836',-0.135
'17:42.839',-0.250
'17:42.842',-0.325
'17:42.844',-0.330
'17:42.847',-0.325
'17:42.850',-0.325
'17:42.853',-0.320
'17:42.856',-0.250
'17:42.858',-0.130
'17:42.861',-0.030
'17:42.864',0.050
'17:42.867',0.055
'17:42.869',0.025
'17:42.872',-0.015
'17:42.875',-0.015
'17:42.878',0.020
'17:42.881',0.070
'17:42.883',0.075
'17:42.886',0.065
'17:42.889',0.055
'17:42.892',0.060
'17:42.894',0.075
'17:42.897',0.090
'17:42.900',0.075
'17:42.903',0.065
'17:42.906',0.050
'17:42.908',0.045
'17:42.911',0.085
'17:42.914',0.070
'17:42.917',0.080
'17:42.919',0.060
'17:42.922',0.040
'17:42.925',0.050
'17:42.928',0.060
'17:42.931',0.070
'17:42.933',0.070
'17:42.936',0.060
'17:42.939',0.040
'17:42.942',0.020
'17:42.944',0.050
'17:42.947',0.065
'17:42.950',0.075
'17:42.953',0.055
'17:42.956',0.040
'17:42.958',0.025
'17:42.961',0.030
'17:42.964',0.040
'17:42.967',0.045
'17:42.969',0.045
'17:42.972',0.030
'17:42.975',0.025
'17:42.978',0.025
'17:42.981',0.025
'17:42.983',-0.005
'17:42.986',-0.030
'17:42.989',-0.020
'17:42.992',-0.005
'17:42.994',0.000
'17:42.997',0.005
'17:43.000',-0.015
'17:43.003',-0.030
'17:43.006',-0.035
'17:43.008',-0.035
'17:43.011',-0.045
'17:43.014',-0.045
'17:43.017',-0.055
'17:43.019',-0.075
'17:43.022',-0.085
'17:43.025',-0.105
'17:43.028',-0.130
'17:43.031',-0.140
'17:43.033',-0.145
'17:43.036',-0.160
'17:43.039',-0.165
'17:43.042',-0.190
'17:43.044',-0.190
'17:43.047',-0.190
'17:43.050',-0.190
'17:43.053',-0.220
'17:43.056',-0.230
'17:43.058',-0.260
'17:43.061',-0.250
'17:43.064',-0.235
'17:43.067',-0.235
'17:43.069',-0.240
'17:43.072',-0.255
'17:43.075',-0.255
'17:43.078',-0.250
'17:43.081',-0.245
'17:43.083',-0.230
'17:43.086',-0.215
'17:43.089',-0.185
'17:43.092',-0.190
'17:43.094',-0.175
'17:43.097',-0.145
'17:43.100',-0.135
'17:43.103',-0.120
'17:43.106',-0.110
'17:43.108',-0.070
'17:43.111',-0.030
'17:43.114',0.020
'17:43.117',0.035
'17:43.119',0.015
'17:43.122',0.015
'17:43.125',0.015
'17:43.128',0.040
'17:43.131',0.080
'17:43.133',0.095
'17:43.136',0.095
'17:43.139',0.090
'17:43.142',0.090
'17:43.144',0.090
'17:43.147',0.105
'17:43.150',0.110
'17:43.153',0.095
'17:43.156',0.095
'17:43.158',0.105
'17:43.161',0.115
'17:43.164',0.130
'17:43.167',0.145
'17:43.169',0.150
'17:43.172',0.150
'17:43.175',0.130
'17:43.178',0.125
'17:43.181',0.125
'17:43.183',0.125
'17:43.186',0.115
'17:43.189',0.110
'17:43.192',0.120
'17:43.194',0.135
'17:43.197',0.165
'17:43.200',0.150
'17:43.203',0.120
'17:43.206',0.105
'17:43.208',0.100
'17:43.211',0.115
'17:43.214',0.140
'17:43.217',0.135
'17:43.219',0.130
'17:43.222',0.125
'17:43.225',0.120
'17:43.228',0.125
'17:43.231',0.135
'17:43.233',0.120
'17:43.236',0.115
'17:43.239',0.105
'17:43.242',0.100
'17:43.244',0.105
'17:43.247',0.120
'17:43.250',0.125
'17:43.253',0.115
'17:43.256',0.095
'17:43.258',0.090
'17:43.261',0.090
'17:43.264',0.125
'17:43.267',0.125
'17:43.269',0.120
'17:43.272',0.095
'17:43.275',0.080
'17:43.278',0.100
'17:43.281',0.120
'17:43.283',0.125
'17:43.286',0.120
'17:43.289',0.105
'17:43.292',0.100
'17:43.294',0.110
'17:43.297',0.135
'17:43.300',0.115
'17:43.303',0.095
'17:43.306',0.065
'17:43.308',0.055
'17:43.311',0.040
'17:43.314',0.060
'17:43.317',0.040
'17:43.319',0.030
'17:43.322',0.010
'17:43.325',0.000
'17:43.328',0.025
'17:43.331',0.040
'17:43.333',0.035
'17:43.336',0.040
'17:43.339',0.015
'17:43.342',0.025
'17:43.344',0.015
'17:43.347',0.035
'17:43.350',0.055
'17:43.353',0.045
'17:43.356',0.055
'17:43.358',0.050
'17:43.361',0.080
'17:43.364',0.100
'17:43.367',0.100
'17:43.369',0.095
'17:43.372',0.075
'17:43.375',0.075
'17:43.378',0.050
'17:43.381',0.055
'17:43.383',0.075
'17:43.386',0.070
'17:43.389',0.060
'17:43.392',0.065
'17:43.394',0.075
'17:43.397',0.100
'17:43.400',0.090
'17:43.403',0.080
'17:43.406',0.065
'17:43.408',0.065
'17:43.411',0.060
'17:43.414',0.065
'17:43.417',0.080
'17:43.419',0.075
'17:43.422',0.050
'17:43.425',0.040
'17:43.428',0.045
'17:43.431',0.055
'17:43.433',0.050
'17:43.436',0.050
'17:43.439',0.025
'17:43.442',0.020
'17:43.444',0.030
'17:43.447',0.005
'17:43.450',-0.070
'17:43.453',-0.165
'17:43.456',-0.260
'17:43.458',-0.305
'17:43.461',-0.285
'17:43.464',-0.275
'17:43.467',-0.290
'17:43.469',-0.265
'17:43.472',-0.205
'17:43.475',-0.065
'17:43.478',0.065
'17:43.481',0.135
'17:43.483',0.120
'17:43.486',0.075
'17:43.489',0.020
'17:43.492',-0.005
'17:43.494',0.005
'17:43.497',0.045
'17:43.500',0.065
'17:43.503',0.065
'17:43.506',0.065
'17:43.508',0.065
'17:43.511',0.075
'17:43.514',0.085
'17:43.517',0.095
'17:43.519',0.085
'17:43.522',0.070
'17:43.525',0.070
'17:43.528',0.075
'17:43.531',0.085
'17:43.533',0.080
'17:43.536',0.075
'17:43.539',0.060
'17:43.542',0.065
'17:43.544',0.075
'17:43.547',0.075
'17:43.550',0.095
'17:43.553',0.075
'17:43.556',0.070
'17:43.558',0.055
'17:43.561',0.070
'17:43.564',0.080
'17:43.567',0.080
'17:43.569',0.065
'17:43.572',0.045
'17:43.575',0.050
'17:43.578',0.050
'17:43.581',0.070
'17:43.583',0.075
'17:43.586',0.060
'17:43.589',0.045
'17:43.592',0.025
'17:43.594',0.035
'17:43.597',0.050
'17:43.600',0.045
'17:43.603',0.035
'17:43.606',0.025
'17:43.608',0.005
'17:43.611',0.015
'17:43.614',0.025
'17:43.617',0.015
'17:43.619',0.000
'17:43.622',-0.015
'17:43.625',-0.020
'17:43.628',-0.020
'17:43.631',-0.015
'17:43.633',-0.025
'17:43.636',-0.045
'17:43.639',-0.055
'17:43.642',-0.080
'17:43.644',-0.090
'17:43.647',-0.080
'17:43.650',-0.100
'17:43.653',-0.120
'17:43.656',-0.140
'17:43.658',-0.155
'17:43.661',-0.165
'17:43.664',-0.170
'17:43.667',-0.175
'17:43.669',-0.190
'17:43.672',-0.215
'17:43.675',-0.235
'17:43.678',-0.235
'17:43.681',-0.235
'17:43.683',-0.225
'17:43.686',-0.245
'17:43.689',-0.255
'17:43.692',-0.265
'17:43.694',-0.250
'17:43.697',-0.225
'17:43.700',-0.230
'17:43.703',-0.215
'17:43.706',-0.205
'17:43.708',-0.180
'17:43.711',-0.165
'17:43.714',-0.140
'17:43.717',-0.120
'17:43.719',-0.090
'17:43.722',-0.085
'17:43.725',-0.060
'17:43.728',-0.030
'17:43.731',0.005
'17:43.733',0.035
'17:43.736',0.045
'17:43.739',0.040
'17:43.742',0.050
'17:43.744',0.060
'17:43.747',0.100
'17:43.750',0.095
'17:43.753',0.110
'17:43.756',0.105
'17:43.758',0.105
'17:43.761',0.115
'17:43.764',0.140
'17:43.767',0.145
'17:43.769',0.130
'17:43.772',0.125
'17:43.775',0.120
'17:43.778',0.125
'17:43.781',0.155
'17:43.783',0.145
'17:43.786',0.155
'17:43.789',0.130
'17:43.792',0.135
'17:43.794',0.140
'17:43.797',0.145
'17:43.800',0.160
'17:43.803',0.155
'17:43.806',0.135
'17:43.808',0.140
'17:43.811',0.135
'17:43.814',0.150
'17:43.817',0.160
'17:43.819',0.150
'17:43.822',0.130
'17:43.825',0.130
'17:43.828',0.130
'17:43.831',0.140
'17:43.833',0.140
'17:43.836',0.135
'17:43.839',0.125
'17:43.842',0.120
'17:43.844',0.135
'17:43.847',0.155
'17:43.850',0.145
'17:43.853',0.140
'17:43.856',0.120
'17:43.858',0.120
'17:43.861',0.120
'17:43.864',0.135
'17:43.867',0.135
'17:43.869',0.120
'17:43.872',0.120
'17:43.875',0.100
'17:43.878',0.115
'17:43.881',0.120
'17:43.883',0.120
'17:43.886',0.110
'17:43.889',0.120
'17:43.892',0.105
'17:43.894',0.105
'17:43.897',0.110
'17:43.900',0.110
'17:43.903',0.115
'17:43.906',0.110
'17:43.908',0.095
'17:43.911',0.100
'17:43.914',0.120
'17:43.917',0.135
'17:43.919',0.130
'17:43.922',0.130
'17:43.925',0.115
'17:43.928',0.120
'17:43.931',0.130
'17:43.933',0.125
'17:43.936',0.125
'17:43.939',0.115
'17:43.942',0.095
'17:43.944',0.100
'17:43.947',0.100
'17:43.950',0.095
'17:43.953',0.110
'17:43.956',0.090
'17:43.958',0.090
'17:43.961',0.100
'17:43.964',0.095
'17:43.967',0.055
'17:43.969',-0.035
'17:43.972',-0.115
'17:43.975',-0.210
'17:43.978',-0.270
'17:43.981',-0.325
'17:43.983',-0.380
'17:43.986',-0.455
'17:43.989',-0.560
'17:43.992',-0.645
'17:43.994',-0.695
'17:43.997',-0.735
'17:44.000',-0.775
'17:44.003',-0.825
'17:44.006',-0.865
'17:44.008',-0.890
'17:44.011',-0.910
'17:44.014',-0.945
'17:44.017',-0.980
'17:44.019',-1.025
'17:44.022',-1.080
'17:44.025',-1.105
'17:44.028',-1.095
'17:44.031',-1.055
'17:44.033',-0.995
'17:44.036',-0.925
'17:44.039',-0.840
'17:44.042',-0.755
'17:44.044',-0.680
'17:44.047',-0.575
'17:44.050',-0.470
'17:44.053',-0.415
'17:44.056',-0.365
'17:44.058',-0.350
'17:44.061',-0.325
'17:44.064',-0.300
'17:44.067',-0.275
'17:44.069',-0.260
'17:44.072',-0.255
'17:44.075',-0.265
'17:44.078',-0.250
'17:44.081',-0.240
'17:44.083',-0.190
'17:44.086',-0.145
'17:44.089',-0.080
'17:44.092',0.005
'17:44.094',0.105
'17:44.097',0.195
'17:44.100',0.240
'17:44.103',0.265
'17:44.106',0.275
'17:44.108',0.280
'17:44.111',0.305
'17:44.114',0.330
'17:44.117',0.355
'17:44.119',0.350
'17:44.122',0.360
'17:44.125',0.360
'17:44.128',0.375
'17:44.131',0.390
'17:44.133',0.425
'17:44.136',0.420
'17:44.139',0.410
'17:44.142',0.410
'17:44.144',0.425
'17:44.147',0.460
'17:44.150',0.460
'17:44.153',0.455
'17:44.156',0.460
'17:44.158',0.460
'17:44.161',0.475
'17:44.164',0.495
'17:44.167',0.500
'17:44.169',0.510
'17:44.172',0.500
'17:44.175',0.500
'17:44.178',0.525
'17:44.181',0.550
'17:44.183',0.550
'17:44.186',0.570
'17:44.189',0.560
'17:44.192',0.555
'17:44.194',0.565
'17:44.197',0.590
'17:44.200',0.595
'17:44.203',0.595
'17:44.206',0.590
'17:44.208',0.590
'17:44.211',0.590
'17:44.214',0.610
'17:44.217',0.615
'17:44.219',0.600
'17:44.222',0.585
'17:44.225',0.585
'17:44.228',0.590
'17:44.231',0.590
'17:44.233',0.580
'17:44.236',0.560
'17:44.239',0.545
'17:44.242',0.520
'17:44.244',0.535
'17:44.247',0.520
'17:44.250',0.515
'17:44.253',0.500
'17:44.256',0.460
'17:44.258',0.445
'17:44.261',0.435
'17:44.264',0.420
'17:44.267',0.400
'17:44.269',0.380
'17:44.272',0.330
'17:44.275',0.315
'17:44.278',0.305
'17:44.281',0.295
'17:44.283',0.270
'17:44.286',0.255
'17:44.289',0.220
'17:44.292',0.200
'17:44.294',0.195
'17:44.297',0.195
'17:44.300',0.180
'17:44.303',0.165
'17:44.306',0.150
'17:44.308',0.145
'17:44.311',0.130
'17:44.314',0.150
'17:44.317',0.150
'17:44.319',0.130
'17:44.322',0.130
'17:44.325',0.105
'17:44.328',0.120
'17:44.331',0.135
'17:44.333',0.155
'17:44.336',0.145
'17:44.339',0.140
'17:44.342',0.135
'17:44.344',0.150
'17:44.347',0.160
'17:44.350',0.155
'17:44.353',0.155
'17:44.356',0.135
'17:44.358',0.145
'17:44.361',0.145
'17:44.364',0.165
'17:44.367',0.155
'17:44.369',0.160
'17:44.372',0.125
'17:44.375',0.140
'17:44.378',0.150
'17:44.381',0.155
'17:44.383',0.170
'17:44.386',0.165
'17:44.389',0.155
'17:44.392',0.140
'17:44.394',0.150
'17:44.397',0.160
'17:44.400',0.170
'17:44.403',0.155
'17:44.406',0.140
'17:44.408',0.135
'17:44.411',0.145
'17:44.414',0.150
'17:44.417',0.150
'17:44.419',0.150
'17:44.422',0.145
'17:44.425',0.135
'17:44.428',0.135
'17:44.431',0.150
'17:44.433',0.150
'17:44.436',0.140
'17:44.439',0.130
'17:44.442',0.125
'17:44.444',0.130
'17:44.447',0.140
'17:44.450',0.145
'17:44.453',0.135
'17:44.456',0.130
'17:44.458',0.125
'17:44.461',0.130
'17:44.464',0.115
'17:44.467',0.130
'17:44.469',0.125
'17:44.472',0.115
'17:44.475',0.110
'17:44.478',0.120
'17:44.481',0.130
'17:44.483',0.125
'17:44.486',0.100
'17:44.489',0.100
'17:44.492',0.100
'17:44.494',0.100
'17:44.497',0.120
'17:44.500',0.110
'17:44.503',0.100
'17:44.506',0.090
'17:44.508',0.085
'17:44.511',0.100
'17:44.514',0.110
'17:44.517',0.105
'17:44.519',0.110
'17:44.522',0.090
'17:44.525',0.085
'17:44.528',0.090
'17:44.531',0.105
'17:44.533',0.120
'17:44.536',0.135
'17:44.539',0.130
'17:44.542',0.135
'17:44.544',0.155
'17:44.547',0.175
'17:44.550',0.180
'17:44.553',0.175
'17:44.556',0.145
'17:44.558',0.115
'17:44.561',0.080
'17:44.564',0.015
'17:44.567',-0.065
'17:44.569',-0.155
'17:44.572',-0.250
'17:44.575',-0.340
'17:44.578',-0.400
'17:44.581',-0.475
'17:44.583',-0.540
'17:44.586',-0.620
'17:44.589',-0.670
'17:44.592',-0.725
'17:44.594',-0.740
'17:44.597',-0.760
'17:44.600',-0.775
'17:44.603',-0.810
'17:44.606',-0.840
'17:44.608',-0.890
'17:44.611',-0.915
'17:44.614',-0.930
'17:44.617',-0.960
'17:44.619',-1.005
'17:44.622',-1.015
'17:44.625',-1.005
'17:44.628',-0.960
'17:44.631',-0.885
'17:44.633',-0.815
'17:44.636',-0.750
'17:44.639',-0.690
'17:44.642',-0.630
'17:44.644',-0.550
'17:44.647',-0.480
'17:44.650',-0.390
'17:44.653',-0.350
'17:44.656',-0.340
'17:44.658',-0.330
'17:44.661',-0.315
'17:44.664',-0.285
'17:44.667',-0.255
'17:44.669',-0.250
'17:44.672',-0.280
'17:44.675',-0.270
'17:44.678',-0.255
'17:44.681',-0.220
'17:44.683',-0.145
'17:44.686',-0.050
'17:44.689',0.030
'17:44.692',0.115
'17:44.694',0.165
'17:44.697',0.215
'17:44.700',0.240
'17:44.703',0.260
'17:44.706',0.270
'17:44.708',0.280
'17:44.711',0.300
'17:44.714',0.320
'17:44.717',0.325
'17:44.719',0.335
'17:44.722',0.320
'17:44.725',0.325
'17:44.728',0.340
'17:44.731',0.365
'17:44.733',0.385
'17:44.736',0.380
'17:44.739',0.370
'17:44.742',0.375
'17:44.744',0.395
'17:44.747',0.405
'17:44.750',0.425
'17:44.753',0.415
'17:44.756',0.415
'17:44.758',0.405
'17:44.761',0.440
'17:44.764',0.460
'17:44.767',0.460
'17:44.769',0.475
'17:44.772',0.460
'17:44.775',0.460
'17:44.778',0.465
'17:44.781',0.495
'17:44.783',0.500
'17:44.786',0.515
'17:44.789',0.505
'17:44.792',0.510
'17:44.794',0.510
'17:44.797',0.535
'17:44.800',0.545
'17:44.803',0.555
'17:44.806',0.535
'17:44.808',0.520
'17:44.811',0.535
'17:44.814',0.550
'17:44.817',0.550
'17:44.819',0.540
'17:44.822',0.525
'17:44.825',0.510
'17:44.828',0.515
'17:44.831',0.515
'17:44.833',0.525
'17:44.836',0.515
'17:44.839',0.500
'17:44.842',0.475
'17:44.844',0.470
'17:44.847',0.475
'17:44.850',0.470
'17:44.853',0.445
'17:44.856',0.425
'17:44.858',0.400
'17:44.861',0.390
'17:44.864',0.385
'17:44.867',0.360
'17:44.869',0.340
'17:44.872',0.310
'17:44.875',0.280
'17:44.878',0.275
'17:44.881',0.270
'17:44.883',0.240
'17:44.886',0.220
'17:44.889',0.185
'17:44.892',0.165
'17:44.894',0.145
'17:44.897',0.155
'17:44.900',0.135
'17:44.903',0.110
'17:44.906',0.110
'17:44.908',0.095
'17:44.911',0.110
'17:44.914',0.120
'17:44.917',0.125
'17:44.919',0.110
'17:44.922',0.085
'17:44.925',0.090
'17:44.928',0.095
'17:44.931',0.110
'17:44.933',0.110
'17:44.936',0.105
'17:44.939',0.100
'17:44.942',0.085
'17:44.944',0.090
'17:44.947',0.105
'17:44.950',0.110
'17:44.953',0.110
'17:44.956',0.100
'17:44.958',0.100
'17:44.961',0.105
'17:44.964',0.110
'17:44.967',0.120
'17:44.969',0.115
'17:44.972',0.100
'17:44.975',0.105
'17:44.978',0.110
'17:44.981',0.130
'17:44.983',0.125
'17:44.986',0.120
'17:44.989',0.095
'17:44.992',0.100
'17:44.994',0.105
'17:44.997',0.130
'17:45.000',0.125
'17:45.003',0.120
'17:45.006',0.115
'17:45.008',0.110
'17:45.011',0.120
'17:45.014',0.130
'17:45.017',0.135
'17:45.019',0.115
'17:45.022',0.105
'17:45.025',0.090
'17:45.028',0.095
'17:45.031',0.115
'17:45.033',0.115
'17:45.036',0.120
'17:45.039',0.100
'17:45.042',0.110
'17:45.044',0.105
'17:45.047',0.125
'17:45.050',0.135
'17:45.053',0.120
'17:45.056',0.090
'17:45.058',0.075
'17:45.061',0.085
'17:45.064',0.090
'17:45.067',0.115
'17:45.069',0.100
'17:45.072',0.105
'17:45.075',0.100
'17:45.078',0.100
'17:45.081',0.100
'17:45.083',0.090
'17:45.086',0.085
'17:45.089',0.075
'17:45.092',0.060
'17:45.094',0.075
'17:45.097',0.085
'17:45.100',0.085
'17:45.103',0.095
'17:45.106',0.070
'17:45.108',0.080
'17:45.111',0.085
'17:45.114',0.095
'17:45.117',0.080
'17:45.119',0.085
'17:45.122',0.070
'17:45.125',0.060
'17:45.128',0.065
'17:45.131',0.080
'17:45.133',0.075
'17:45.136',0.070
'17:45.139',0.055
'17:45.142',0.055
'17:45.144',0.065
'17:45.147',0.075
'17:45.150',0.095
'17:45.153',0.075
'17:45.156',0.055
'17:45.158',0.050
'17:45.161',0.055
'17:45.164',0.060
'17:45.167',0.060
'17:45.169',0.065
'17:45.172',0.040
'17:45.175',0.035
'17:45.178',0.055
'17:45.181',0.065
'17:45.183',0.075
'17:45.186',0.070
'17:45.189',0.060
'17:45.192',0.050
'17:45.194',0.055
'17:45.197',0.045
'17:45.200',0.055
'17:45.203',0.065
'17:45.206',0.060
'17:45.208',0.050
'17:45.211',0.075
'17:45.214',0.105
'17:45.217',0.105
'17:45.219',0.100
'17:45.222',0.065
'17:45.225',0.045
'17:45.228',0.040
'17:45.231',0.055
'17:45.233',0.060
'17:45.236',0.040
'17:45.239',0.010
'17:45.242',0.000
'17:45.244',-0.010
'17:45.247',-0.015
'17:45.250',0.000
'17:45.253',-0.015
'17:45.256',-0.035
'17:45.258',-0.035
'17:45.261',-0.020
'17:45.264',0.000
'17:45.267',0.010
'17:45.269',0.015
'17:45.272',0.000
'17:45.275',0.000
'17:45.278',0.010
'17:45.281',0.030
'17:45.283',0.030
'17:45.286',0.030
'17:45.289',0.025
'17:45.292',0.015
'17:45.294',0.015
'17:45.297',0.040
'17:45.300',0.035
'17:45.303',0.055
'17:45.306',0.030
'17:45.308',0.030
'17:45.311',0.040
'17:45.314',0.030
'17:45.317',0.025
'17:45.319',0.030
'17:45.322',0.015
'17:45.325',0.020
'17:45.328',0.025
'17:45.331',0.030
'17:45.333',0.030
'17:45.336',0.020
'17:45.339',0.005
'17:45.342',0.015
'17:45.344',0.010
'17:45.347',0.030
'17:45.350',0.045
'17:45.353',0.030
'17:45.356',0.015
'17:45.358',-0.015
'17:45.361',-0.015
'17:45.364',-0.015
'17:45.367',0.000
'17:45.369',-0.015
'17:45.372',-0.030
'17:45.375',-0.090
'17:45.378',-0.155
'17:45.381',-0.230
'17:45.383',-0.295
'17:45.386',-0.335
'17:45.389',-0.360
'17:45.392',-0.390
'17:45.394',-0.400
'17:45.397',-0.385
'17:45.400',-0.330
'17:45.403',-0.245
'17:45.406',-0.135
'17:45.408',-0.040
'17:45.411',0.010
'17:45.414',0.040
'17:45.417',0.025
'17:45.419',0.005
'17:45.422',-0.030
'17:45.425',-0.030
'17:45.428',-0.010
'17:45.431',0.020
'17:45.433',0.035
'17:45.436',0.040
'17:45.439',0.030
'17:45.442',0.020
'17:45.444',0.030
'17:45.447',0.055
'17:45.450',0.055
'17:45.453',0.060
'17:45.456',0.050
'17:45.458',0.040
'17:45.461',0.055
'17:45.464',0.080
'17:45.467',0.090
'17:45.469',0.080
'17:45.472',0.055
'17:45.475',0.045
'17:45.478',0.045
'17:45.481',0.050
'17:45.483',0.060
'17:45.486',0.045
'17:45.489',0.040
'17:45.492',0.035
'17:45.494',0.020
'17:45.497',0.040
'17:45.500',0.045
'17:45.503',0.040
'17:45.506',0.030
'17:45.508',0.005
'17:45.511',0.015
'17:45.514',0.020
'17:45.517',0.040
'17:45.519',0.025
'17:45.522',0.000
'17:45.525',-0.015
'17:45.528',-0.015
'17:45.531',-0.005
'17:45.533',0.015
'17:45.536',0.000
'17:45.539',-0.015
'17:45.542',-0.025
'17:45.544',-0.035
'17:45.547',-0.035
'17:45.550',-0.025
'17:45.553',-0.030
'17:45.556',-0.035
'17:45.558',-0.055
'17:45.561',-0.055
'17:45.564',-0.040
'17:45.567',-0.060
'17:45.569',-0.060
'17:45.572',-0.090
'17:45.575',-0.105
'17:45.578',-0.095
'17:45.581',-0.090
'17:45.583',-0.095
'17:45.586',-0.120
'17:45.589',-0.150
'17:45.592',-0.175
'17:45.594',-0.205
'17:45.597',-0.205
'17:45.600',-0.210
'17:45.603',-0.200
'17:45.606',-0.215
'17:45.608',-0.220
'17:45.611',-0.215
'17:45.614',-0.230
'17:45.617',-0.245
'17:45.619',-0.245
'17:45.622',-0.260
'17:45.625',-0.285
'17:45.628',-0.285
'17:45.631',-0.270
'17:45.633',-0.255
'17:45.636',-0.275
'17:45.639',-0.290
'17:45.642',-0.290
'17:45.644',-0.285
'17:45.647',-0.260
'17:45.650',-0.240
'17:45.653',-0.205
'17:45.656',-0.200
'17:45.658',-0.180
'17:45.661',-0.145
'17:45.664',-0.115
'17:45.667',-0.085
'17:45.669',-0.070
'17:45.672',-0.065
'17:45.675',-0.040
'17:45.678',-0.015
'17:45.681',0.010
'17:45.683',0.020
'17:45.686',0.025
'17:45.689',0.030
'17:45.692',0.030
'17:45.694',0.035
'17:45.697',0.070
'17:45.700',0.070
'17:45.703',0.090
'17:45.706',0.080
'17:45.708',0.080
'17:45.711',0.080
'17:45.714',0.120
'17:45.717',0.130
'17:45.719',0.130
'17:45.722',0.115
'17:45.725',0.090
'17:45.728',0.095
'17:45.731',0.115
'17:45.733',0.110
'17:45.736',0.115
'17:45.739',0.110
'17:45.742',0.115
'17:45.744',0.125
'17:45.747',0.150
'17:45.750',0.150
'17:45.753',0.115
'17:45.756',0.100
'17:45.758',0.095
'17:45.761',0.110
'17:45.764',0.120
'17:45.767',0.130
'17:45.769',0.125
'17:45.772',0.105
'17:45.775',0.115
'17:45.778',0.125
'17:45.781',0.130
'17:45.783',0.130
'17:45.786',0.140
'17:45.789',0.125
'17:45.792',0.110
'17:45.794',0.105
'17:45.797',0.115
'17:45.800',0.115
'17:45.803',0.105
'17:45.806',0.090
'17:45.808',0.095
'17:45.811',0.090
'17:45.814',0.105
'17:45.817',0.120
'17:45.819',0.105
'17:45.822',0.080
'17:45.825',0.075
'17:45.828',0.080
'17:45.831',0.100
'17:45.833',0.115
'17:45.836',0.125
'17:45.839',0.110
'17:45.842',0.090
'17:45.844',0.065
'17:45.847',0.065
'17:45.850',0.075
'17:45.853',0.090
'17:45.856',0.070
'17:45.858',0.070
'17:45.861',0.070
'17:45.864',0.085
'17:45.867',0.095
'17:45.869',0.090
'17:45.872',0.070
'17:45.875',0.070
'17:45.878',0.090
'17:45.881',0.120
'17:45.883',0.120
'17:45.886',0.110
'17:45.889',0.085
'17:45.892',0.080
'17:45.894',0.080
'17:45.897',0.090
'17:45.900',0.095
'17:45.903',0.085
'17:45.906',0.050
'17:45.908',0.035
'17:45.911',0.030
'17:45.914',0.025
'17:45.917',0.025
'17:45.919',0.005
'17:45.922',0.000
'17:45.925',0.000
'17:45.928',0.020
'17:45.931',0.040
'17:45.933',0.040
'17:45.936',0.015
'17:45.939',-0.015
'17:45.942',-0.035
'17:45.944',-0.010
'17:45.947',0.020
'17:45.950',0.050
'17:45.953',0.075
'17:45.956',0.075
'17:45.958',0.060
'17:45.961',0.040
'17:45.964',0.040
'17:45.967',0.045
'17:45.969',0.045
'17:45.972',0.030
'17:45.975',0.045
'17:45.978',0.045
'17:45.981',0.060
'17:45.983',0.075
'17:45.986',0.065
'17:45.989',0.050
'17:45.992',0.035
'17:45.994',0.030
'17:45.997',0.045
'17:46.000',0.070
'17:46.003',0.060
'17:46.006',0.040
'17:46.008',0.035
'17:46.011',0.040
'17:46.014',0.065
'17:46.017',0.050
'17:46.019',0.045
'17:46.022',0.020
'17:46.025',0.025
'17:46.028',0.030
'17:46.031',0.040
'17:46.033',0.025
'17:46.036',0.020
'17:46.039',0.010
'17:46.042',0.005
'17:46.044',-0.025
'17:46.047',-0.075
'17:46.050',-0.140
'17:46.053',-0.230
'17:46.056',-0.310
'17:46.058',-0.320
'17:46.061',-0.325
'17:46.064',-0.325
'17:46.067',-0.315
'17:46.069',-0.315
'17:46.072',-0.260
'17:46.075',-0.140
'17:46.078',-0.035
'17:46.081',0.050
'17:46.083',0.090
'17:46.086',0.085
'17:46.089',0.045
'17:46.092',0.000
'17:46.094',-0.010
'17:46.097',0.010
'17:46.100',0.035
'17:46.103',0.060
'17:46.106',0.050
'17:46.108',0.035
'17:46.111',0.045
'17:46.114',0.065
'17:46.117',0.080
'17:46.119',0.080
'17:46.122',0.055
'17:46.125',0.040
'17:46.128',0.040
'17:46.131',0.055
'17:46.133',0.065
'17:46.136',0.050
'17:46.139',0.030
'17:46.142',0.020
'17:46.144',0.020
'17:46.147',0.045
'17:46.150',0.055
'17:46.153',0.055
'17:46.156',0.040
'17:46.158',0.030
'17:46.161',0.030
'17:46.164',0.035
'17:46.167',0.035
'17:46.169',0.030
'17:46.172',0.030
'17:46.175',0.020
'17:46.178',0.035
'17:46.181',0.055
'17:46.183',0.050
'17:46.186',0.035
'17:46.189',0.020
'17:46.192',0.020
'17:46.194',0.025
'17:46.197',0.030
'17:46.200',0.025
'17:46.203',0.025
'17:46.206',0.000
'17:46.208',-0.005
'17:46.211',-0.015
'17:46.214',-0.010
'17:46.217',-0.015
'17:46.219',-0.025
'17:46.222',-0.040
'17:46.225',-0.045
'17:46.228',-0.050
'17:46.231',-0.040
'17:46.233',-0.045
'17:46.236',-0.045
'17:46.239',-0.085
'17:46.242',-0.085
'17:46.244',-0.100
'17:46.247',-0.070
'17:46.250',-0.085
'17:46.253',-0.095
'17:46.256',-0.120
'17:46.258',-0.130
'17:46.261',-0.150
'17:46.264',-0.145
'17:46.267',-0.160
'17:46.269',-0.170
'17:46.272',-0.215
'17:46.275',-0.225
'17:46.278',-0.225
'17:46.281',-0.215
'17:46.283',-0.210
'17:46.286',-0.210
'17:46.289',-0.250
'17:46.292',-0.270
'17:46.294',-0.280
'17:46.297',-0.275
'17:46.300',-0.265
'17:46.303',-0.260
'17:46.306',-0.275
'17:46.308',-0.275
'17:46.311',-0.290
'17:46.314',-0.275
'17:46.317',-0.270
'17:46.319',-0.245
'17:46.322',-0.240
'17:46.325',-0.230
'17:46.328',-0.215
'17:46.331',-0.170
'17:46.333',-0.165
'17:46.336',-0.125
'17:46.339',-0.110
'17:46.342',-0.105
'17:46.344',-0.085
'17:46.347',-0.050
'17:46.350',-0.015
'17:46.353',0.010
'17:46.356',0.010
'17:46.358',0.020
'17:46.361',0.060
'17:46.364',0.080
'17:46.367',0.080
'17:46.369',0.070
'17:46.372',0.055
'17:46.375',0.055
'17:46.378',0.080
'17:46.381',0.090
'17:46.383',0.105
'17:46.386',0.115
'17:46.389',0.105
'17:46.392',0.095
'17:46.394',0.105
'17:46.397',0.115
'17:46.400',0.115
'17:46.403',0.125
'17:46.406',0.120
'17:46.408',0.100
'17:46.411',0.095
'17:46.414',0.110
'17:46.417',0.120
'17:46.419',0.120
'17:46.422',0.110
'17:46.425',0.095
'17:46.428',0.110
'17:46.431',0.135
'17:46.433',0.140
'17:46.436',0.135
'17:46.439',0.120
'17:46.442',0.120
'17:46.444',0.110
'17:46.447',0.125
'17:46.450',0.130
'17:46.453',0.125
'17:46.456',0.125
'17:46.458',0.125
'17:46.461',0.130
'17:46.464',0.125
'17:46.467',0.125
'17:46.469',0.130
'17:46.472',0.100
'17:46.475',0.085
'17:46.478',0.080
'17:46.481',0.090
'17:46.483',0.095
'17:46.486',0.100
'17:46.489',0.085
'17:46.492',0.080
'17:46.494',0.090
'17:46.497',0.095
'17:46.500',0.110
'17:46.503',0.090
'17:46.506',0.085
'17:46.508',0.090
'17:46.511',0.090
'17:46.514',0.090
'17:46.517',0.110
'17:46.519',0.090
'17:46.522',0.080
'17:46.525',0.075
'17:46.528',0.090
'17:46.531',0.090
'17:46.533',0.090
'17:46.536',0.095
'17:46.539',0.090
'17:46.542',0.065
'17:46.544',0.085
'17:46.547',0.095
'17:46.550',0.090
'17:46.553',0.090
'17:46.556',0.085
'17:46.558',0.075
'17:46.561',0.085
'17:46.564',0.090
'17:46.567',0.115
'17:46.569',0.115
'17:46.572',0.135
'17:46.575',0.115
'17:46.578',0.135
'17:46.581',0.155
'17:46.583',0.155
'17:46.586',0.135
'17:46.589',0.095
'17:46.592',0.025
'17:46.594',-0.050
'17:46.597',-0.105
'17:46.600',-0.195
'17:46.603',-0.270
'17:46.606',-0.360
'17:46.608',-0.425
'17:46.611',-0.515
'17:46.614',-0.600
'17:46.617',-0.665
'17:46.619',-0.735
'17:46.622',-0.795
'17:46.625',-0.840
'17:46.628',-0.865
'17:46.631',-0.865
'17:46.633',-0.895
'17:46.636',-0.920
'17:46.639',-0.945
'17:46.642',-0.970
'17:46.644',-0.995
'17:46.647',-1.025
'17:46.650',-1.040
'17:46.653',-1.050
'17:46.656',-1.040
'17:46.658',-0.975
'17:46.661',-0.905
'17:46.664',-0.805
'17:46.667',-0.730
'17:46.669',-0.675
'17:46.672',-0.610
'17:46.675',-0.555
'17:46.678',-0.475
'17:46.681',-0.420
'17:46.683',-0.360
'17:46.686',-0.355
'17:46.689',-0.350
'17:46.692',-0.340
'17:46.694',-0.315
'17:46.697',-0.280
'17:46.700',-0.265
'17:46.703',-0.280
'17:46.706',-0.285
'17:46.708',-0.265
'17:46.711',-0.235
'17:46.714',-0.170
'17:46.717',-0.090
'17:46.719',-0.030
'17:46.722',0.050
'17:46.725',0.115
'17:46.728',0.165
'17:46.731',0.205
'17:46.733',0.240
'17:46.736',0.260
'17:46.739',0.270
'17:46.742',0.260
'17:46.744',0.285
'17:46.747',0.305
'17:46.750',0.325
'17:46.753',0.320
'17:46.756',0.315
'17:46.758',0.315
'17:46.761',0.335
'17:46.764',0.345
'17:46.767',0.345
'17:46.769',0.365
'17:46.772',0.355
'17:46.775',0.360
'17:46.778',0.370
'17:46.781',0.405
'17:46.783',0.415
'17:46.786',0.415
'17:46.789',0.400
'17:46.792',0.405
'17:46.794',0.400
'17:46.797',0.430
'17:46.800',0.440
'17:46.803',0.440
'17:46.806',0.440
'17:46.808',0.440
'17:46.811',0.455
'17:46.814',0.465
'17:46.817',0.485
'17:46.819',0.500
'17:46.822',0.505
'17:46.825',0.505
'17:46.828',0.510
'17:46.831',0.530
'17:46.833',0.525
'17:46.836',0.520
'17:46.839',0.495
'17:46.842',0.495
'17:46.844',0.510
'17:46.847',0.515
'17:46.850',0.520
'17:46.853',0.515
'17:46.856',0.500
'17:46.858',0.490
'17:46.861',0.485
'17:46.864',0.490
'17:46.867',0.485
'17:46.869',0.465
'17:46.872',0.450
'17:46.875',0.435
'17:46.878',0.430
'17:46.881',0.420
'17:46.883',0.420
'17:46.886',0.400
'17:46.889',0.360
'17:46.892',0.330
'17:46.894',0.305
'17:46.897',0.300
'17:46.900',0.290
'17:46.903',0.260
'17:46.906',0.235
'17:46.908',0.210
'17:46.911',0.200
'17:46.914',0.200
'17:46.917',0.210
'17:46.919',0.185
'17:46.922',0.155
'17:46.925',0.125
'17:46.928',0.090
'17:46.931',0.095
'17:46.933',0.095
'17:46.936',0.075
'17:46.939',0.065
'17:46.942',0.055
'17:46.944',0.080
'17:46.947',0.085
'17:46.950',0.095
'17:46.953',0.095
'17:46.956',0.075
'17:46.958',0.080
'17:46.961',0.085
'17:46.964',0.095
'17:46.967',0.095
'17:46.969',0.085
'17:46.972',0.070
'17:46.975',0.075
'17:46.978',0.080
'17:46.981',0.090
'17:46.983',0.100
'17:46.986',0.100
'17:46.989',0.095
'17:46.992',0.085
'17:46.994',0.095
'17:46.997',0.110
'17:47.000',0.110
'17:47.003',0.100
'17:47.006',0.090
'17:47.008',0.085
'17:47.011',0.095
'17:47.014',0.110
'17:47.017',0.120
'17:47.019',0.125
'17:47.022',0.110
'17:47.025',0.090
'17:47.028',0.095
'17:47.031',0.110
'17:47.033',0.110
'17:47.036',0.105
'17:47.039',0.100
'17:47.042',0.080
'17:47.044',0.085
'17:47.047',0.095
'17:47.050',0.100
'17:47.053',0.090
'17:47.056',0.085
'17:47.058',0.070
'17:47.061',0.085
'17:47.064',0.090
'17:47.067',0.100
'17:47.069',0.100
'17:47.072',0.085
'17:47.075',0.075
'17:47.078',0.075
'17:47.081',0.090
'17:47.083',0.080
'17:47.086',0.090
'17:47.089',0.075
'17:47.092',0.070
'17:47.094',0.085
'17:47.097',0.095
'17:47.100',0.090
'17:47.103',0.095
'17:47.106',0.080
'17:47.108',0.070
'17:47.111',0.075
'17:47.114',0.080
'17:47.117',0.075
'17:47.119',0.085
'17:47.122',0.075
'17:47.125',0.055
'17:47.128',0.060
'17:47.131',0.065
'17:47.133',0.080
'17:47.136',0.080
'17:47.139',0.065
'17:47.142',0.050
'17:47.144',0.045
'17:47.147',0.070
'17:47.150',0.075
'17:47.153',0.075
'17:47.156',0.060
'17:47.158',0.050
'17:47.161',0.055
'17:47.164',0.065
'17:47.167',0.055
'17:47.169',0.055
'17:47.172',0.050
'17:47.175',0.050
'17:47.178',0.050
'17:47.181',0.050
'17:47.183',0.060
'17:47.186',0.055
'17:47.189',0.045
'17:47.192',0.045
'17:47.194',0.050
'17:47.197',0.070
'17:47.200',0.065
'17:47.203',0.065
'17:47.206',0.050
'17:47.208',0.055
'17:47.211',0.040
'17:47.214',0.050
'17:47.217',0.065
'17:47.219',0.055
'17:47.222',0.050
'17:47.225',0.035
'17:47.228',0.040
'17:47.231',0.055
'17:47.233',0.070
'17:47.236',0.075
'17:47.239',0.055
'17:47.242',0.045
'17:47.244',0.055
'17:47.247',0.045
'17:47.250',0.055
'17:47.253',0.045
'17:47.256',0.025
'17:47.258',0.010
'17:47.261',0.025
'17:47.264',0.045
'17:47.267',0.055
'17:47.269',0.055
'17:47.272',0.045
'17:47.275',0.030
'17:47.278',0.035
'17:47.281',0.050
'17:47.283',0.055
'17:47.286',0.065
'17:47.289',0.060
'17:47.292',0.050
'17:47.294',0.050
'17:47.297',0.055
'17:47.300',0.060
'17:47.303',0.065
'17:47.306',0.050
'17:47.308',0.035
'17:47.311',0.025
'17:47.314',0.035
'17:47.317',0.035
'17:47.319',0.025
'17:47.322',0.005
'17:47.325',-0.015
'17:47.328',-0.020
'17:47.331',-0.020
'17:47.333',0.015
'17:47.336',0.010
'17:47.339',0.005
'17:47.342',-0.010
'17:47.344',-0.010
'17:47.347',0.000
'17:47.350',0.015
'17:47.353',0.010
'17:47.356',0.000
'17:47.358',0.000
'17:47.361',0.025
'17:47.364',0.040
'17:47.367',0.045
'17:47.369',0.040
'17:47.372',0.030
'17:47.375',0.025
'17:47.378',0.030
'17:47.381',0.040
'17:47.383',0.075
'17:47.386',0.050
'17:47.389',0.035
'17:47.392',0.030
'17:47.394',0.035
'17:47.397',0.035
'17:47.400',0.055
'17:47.403',0.045
'17:47.406',0.025
'17:47.408',0.015
'17:47.411',0.015
'17:47.414',0.030
'17:47.417',0.045
'17:47.419',0.020
'17:47.422',0.005
'17:47.425',0.000
'17:47.428',-0.010
'17:47.431',-0.015
'17:47.433',-0.030
'17:47.436',-0.100
'17:47.439',-0.200
'17:47.442',-0.275
'17:47.444',-0.315
'17:47.447',-0.320
'17:47.450',-0.325
'17:47.453',-0.330
'17:47.456',-0.345
'17:47.458',-0.270
'17:47.461',-0.150
'17:47.464',-0.040
'17:47.467',0.030
'17:47.469',0.070
'17:47.472',0.045
'17:47.475',0.000
'17:47.478',-0.020
'17:47.481',-0.010
'17:47.483',0.025
'17:47.486',0.045
'17:47.489',0.045
'17:47.492',0.040
'17:47.494',0.040
'17:47.497',0.060
'17:47.500',0.065
'17:47.503',0.065
'17:47.506',0.050
'17:47.508',0.035
'17:47.511',0.050
'17:47.514',0.065
'17:47.517',0.070
'17:47.519',0.075
'17:47.522',0.055
'17:47.525',0.060
'17:47.528',0.070
'17:47.531',0.070
'17:47.533',0.065
'17:47.536',0.055
'17:47.539',0.050
'17:47.542',0.040
'17:47.544',0.065
'17:47.547',0.070
'17:47.550',0.070
'17:47.553',0.055
'17:47.556',0.045
'17:47.558',0.040
'17:47.561',0.035
'17:47.564',0.045
'17:47.567',0.060
'17:47.569',0.065
'17:47.572',0.045
'17:47.575',0.030
'17:47.578',0.025
'17:47.581',0.025
'17:47.583',0.040
'17:47.586',0.030
'17:47.589',0.025
'17:47.592',0.005
'17:47.594',0.015
'17:47.597',0.030
'17:47.600',0.035
'17:47.603',0.030
'17:47.606',0.000
'17:47.608',0.000
'17:47.611',0.005
'17:47.614',-0.005
'17:47.617',0.000
'17:47.619',-0.020
'17:47.622',-0.050
'17:47.625',-0.065
'17:47.628',-0.060
'17:47.631',-0.065
'17:47.633',-0.055
'17:47.636',-0.060
'17:47.639',-0.090
'17:47.642',-0.115
'17:47.644',-0.120
'17:47.647',-0.115
'17:47.650',-0.120
'17:47.653',-0.120
'17:47.656',-0.140
'17:47.658',-0.170
'17:47.661',-0.190
'17:47.664',-0.205
'17:47.667',-0.205
'17:47.669',-0.225
'17:47.672',-0.245
'17:47.675',-0.240
'17:47.678',-0.235
'17:47.681',-0.230
'17:47.683',-0.230
'17:47.686',-0.240
'17:47.689',-0.275
'17:47.692',-0.275
'17:47.694',-0.275
'17:47.697',-0.260
'17:47.700',-0.255
'17:47.703',-0.255
'17:47.706',-0.255
'17:47.708',-0.225
'17:47.711',-0.210
'17:47.714',-0.180
'17:47.717',-0.165
'17:47.719',-0.150
'17:47.722',-0.145
'17:47.725',-0.145
'17:47.728',-0.120
'17:47.731',-0.075
'17:47.733',-0.050
'17:47.736',-0.025
'17:47.739',-0.015
'17:47.742',-0.005
'17:47.744',0.015
'17:47.747',0.025
'17:47.750',0.040
'17:47.753',0.035
'17:47.756',0.035
'17:47.758',0.035
'17:47.761',0.070
'17:47.764',0.085
'17:47.767',0.110
'17:47.769',0.115
'17:47.772',0.100
'17:47.775',0.085
'17:47.778',0.095
'17:47.781',0.105
'17:47.783',0.115
'17:47.786',0.110
'17:47.789',0.110
'17:47.792',0.105
'17:47.794',0.105
'17:47.797',0.120
'17:47.800',0.130
'17:47.803',0.140
'17:47.806',0.125
'17:47.808',0.135
'17:47.811',0.130
'17:47.814',0.130
'17:47.817',0.130
'17:47.819',0.115
'17:47.822',0.105
'17:47.825',0.100
'17:47.828',0.095
'17:47.831',0.110
'17:47.833',0.115
'17:47.836',0.130
'17:47.839',0.115
'17:47.842',0.105
'17:47.844',0.105
'17:47.847',0.105
'17:47.850',0.125
'17:47.853',0.125
'17:47.856',0.105
'17:47.858',0.110
'17:47.861',0.105
'17:47.864',0.105
'17:47.867',0.125
'17:47.869',0.125
'17:47.872',0.115
'17:47.875',0.090
'17:47.878',0.100
'17:47.881',0.100
'17:47.883',0.100
'17:47.886',0.095
'17:47.889',0.090
'17:47.892',0.090
'17:47.894',0.085
'17:47.897',0.105
'17:47.900',0.105
'17:47.903',0.105
'17:47.906',0.090
'17:47.908',0.090
'17:47.911',0.110
'17:47.914',0.105
'17:47.917',0.115
'17:47.919',0.090
'17:47.922',0.080
'17:47.925',0.070
'17:47.928',0.090
'17:47.931',0.090
'17:47.933',0.100
'17:47.936',0.090
'17:47.939',0.095
'17:47.942',0.100
'17:47.944',0.115
'17:47.947',0.115
'17:47.950',0.105
'17:47.953',0.090
'17:47.956',0.085
'17:47.958',0.075
'17:47.961',0.070
'17:47.964',0.090
'17:47.967',0.100
'17:47.969',0.095
'17:47.972',0.100
'17:47.975',0.090
'17:47.978',0.085
'17:47.981',0.115
'17:47.983',0.115
'17:47.986',0.105
'17:47.989',0.105
'17:47.992',0.095
'17:47.994',0.085
'17:47.997',0.080
'17:48.000',0.070
'17:48.003',0.065
'17:48.006',0.045
'17:48.008',0.015
'17:48.011',0.000
'17:48.014',0.005
'17:48.017',0.025
'17:48.019',0.015
'17:48.022',0.025
'17:48.025',0.010
'17:48.028',0.025
'17:48.031',0.040
'17:48.033',0.045
'17:48.036',0.035
'17:48.039',0.020
'17:48.042',0.025
'17:48.044',0.045
'17:48.047',0.070
'17:48.050',0.095
'17:48.053',0.090
'17:48.056',0.090
'17:48.058',0.075
'17:48.061',0.085
'17:48.064',0.090
'17:48.067',0.085
'17:48.069',0.085
'17:48.072',0.085
'17:48.075',0.085
'17:48.078',0.085
'17:48.081',0.090
'17:48.083',0.070
'17:48.086',0.065
'17:48.089',0.050
'17:48.092',0.070
'17:48.094',0.070
'17:48.097',0.085
'17:48.100',0.100
'17:48.103',0.085
'17:48.106',0.070
'17:48.108',0.050
'17:48.111',0.055
'17:48.114',0.065
'17:48.117',0.065
'17:48.119',0.055
'17:48.122',0.055
'17:48.125',0.030
'17:48.128',0.030
'17:48.131',0.050
'17:48.133',0.045
'17:48.136',-0.005
'17:48.139',-0.090
'17:48.142',-0.195
'17:48.144',-0.250
'17:48.147',-0.270
'17:48.150',-0.270
'17:48.153',-0.275
'17:48.156',-0.295
'17:48.158',-0.265
'17:48.161',-0.170
'17:48.164',-0.040
'17:48.167',0.060
'17:48.169',0.115
'17:48.172',0.115
'17:48.175',0.075
'17:48.178',0.030
'17:48.181',0.040
'17:48.183',0.045
'17:48.186',0.065
'17:48.189',0.055
'17:48.192',0.070
'17:48.194',0.075
'17:48.197',0.095
'17:48.200',0.100
'17:48.203',0.100
'17:48.206',0.085
'17:48.208',0.085
'17:48.211',0.090
'17:48.214',0.105
'17:48.217',0.120
'17:48.219',0.120
'17:48.222',0.115
'17:48.225',0.090
'17:48.228',0.095
'17:48.231',0.090
'17:48.233',0.100
'17:48.236',0.100
'17:48.239',0.100
'17:48.242',0.090
'17:48.244',0.095
'17:48.247',0.095
'17:48.250',0.100
'17:48.253',0.090
'17:48.256',0.070
'17:48.258',0.065
'17:48.261',0.075
'17:48.264',0.090
'17:48.267',0.105
'17:48.269',0.105
'17:48.272',0.085
'17:48.275',0.085
'17:48.278',0.085
'17:48.281',0.065
'17:48.283',0.065
'17:48.286',0.055
'17:48.289',0.045
'17:48.292',0.055
'17:48.294',0.055
'17:48.297',0.045
'17:48.300',0.045
'17:48.303',0.030
'17:48.306',0.020
'17:48.308',0.010
'17:48.311',0.010
'17:48.314',0.025
'17:48.317',0.020
'17:48.319',0.020
'17:48.322',0.015
'17:48.325',-0.005
'17:48.328',-0.025
'17:48.331',-0.020
'17:48.333',-0.030
'17:48.336',-0.035
'17:48.339',-0.070
'17:48.342',-0.095
'17:48.344',-0.110
'17:48.347',-0.105
'17:48.350',-0.105
'17:48.353',-0.120
'17:48.356',-0.130
'17:48.358',-0.150
'17:48.361',-0.160
'17:48.364',-0.175
'17:48.367',-0.175
'17:48.369',-0.190
'17:48.372',-0.215
'17:48.375',-0.210
'17:48.378',-0.220
'17:48.381',-0.215
'17:48.383',-0.200
'17:48.386',-0.220
'17:48.389',-0.215
'17:48.392',-0.235
'17:48.394',-0.235
'17:48.397',-0.250
'17:48.400',-0.240
'17:48.403',-0.230
'17:48.406',-0.225
'17:48.408',-0.200
'17:48.411',-0.170
'17:48.414',-0.140
'17:48.417',-0.115
'17:48.419',-0.105
'17:48.422',-0.080
'17:48.425',-0.065
'17:48.428',-0.045
'17:48.431',-0.010
'17:48.433',0.015
'17:48.436',0.040
'17:48.439',0.050
'17:48.442',0.065
'17:48.444',0.075
'17:48.447',0.095
'17:48.450',0.120
'17:48.453',0.145
'17:48.456',0.135
'17:48.458',0.125
'17:48.461',0.140
'17:48.464',0.165
'17:48.467',0.160
'17:48.469',0.160
'17:48.472',0.140
'17:48.475',0.130
'17:48.478',0.130
'17:48.481',0.155
'17:48.483',0.180
'17:48.486',0.200
'17:48.489',0.190
'17:48.492',0.185
'17:48.494',0.175
'17:48.497',0.175
'17:48.500',0.185
'17:48.503',0.190
'17:48.506',0.180
'17:48.508',0.175
'17:48.511',0.165
'17:48.514',0.185
'17:48.517',0.195
'17:48.519',0.200
'17:48.522',0.210
'17:48.525',0.190
'17:48.528',0.175
'17:48.531',0.170
'17:48.533',0.175
'17:48.536',0.195
'17:48.539',0.190
'17:48.542',0.185
'17:48.544',0.190
'17:48.547',0.205
'17:48.550',0.185
'17:48.553',0.160
'17:48.556',0.150
'17:48.558',0.150
'17:48.561',0.165
'17:48.564',0.165
'17:48.567',0.180
'17:48.569',0.175
'17:48.572',0.170
'17:48.575',0.150
'17:48.578',0.155
'17:48.581',0.175
'17:48.583',0.185
'17:48.586',0.170
'17:48.589',0.155
'17:48.592',0.165
'17:48.594',0.170
'17:48.597',0.180
'17:48.600',0.165
'17:48.603',0.140
'17:48.606',0.120
'17:48.608',0.115
'17:48.611',0.125
'17:48.614',0.150
'17:48.617',0.160
'17:48.619',0.160
'17:48.622',0.145
'17:48.625',0.140
'17:48.628',0.145
'17:48.631',0.160
'17:48.633',0.180
'17:48.636',0.170
'17:48.639',0.165
'17:48.642',0.170
'17:48.644',0.180
'17:48.647',0.200
'17:48.650',0.210
'17:48.653',0.200
'17:48.656',0.165
'17:48.658',0.155
'17:48.661',0.140
'17:48.664',0.125
'17:48.667',0.070
'17:48.669',0.010
'17:48.672',-0.075
'17:48.675',-0.140
'17:48.678',-0.210
'17:48.681',-0.280
'17:48.683',-0.355
'17:48.686',-0.455
'17:48.689',-0.550
'17:48.692',-0.620
'17:48.694',-0.680
'17:48.697',-0.730
'17:48.700',-0.775
'17:48.703',-0.820
'17:48.706',-0.885
'17:48.708',-0.950
'17:48.711',-0.995
'17:48.714',-1.025
'17:48.717',-1.040
'17:48.719',-1.050
'17:48.722',-1.070
'17:48.725',-1.095
'17:48.728',-1.045
'17:48.731',-0.995
'17:48.733',-0.915
'17:48.736',-0.845
'17:48.739',-0.790
'17:48.742',-0.715
'17:48.744',-0.610
'17:48.747',-0.500
'17:48.750',-0.400
'17:48.753',-0.355
'17:48.756',-0.335
'17:48.758',-0.315
'17:48.761',-0.305
'17:48.764',-0.270
'17:48.767',-0.245
'17:48.769',-0.225
'17:48.772',-0.210
'17:48.775',-0.215
'17:48.778',-0.210
'17:48.781',-0.190
'17:48.783',-0.125
'17:48.786',-0.055
'17:48.789',0.020
'17:48.792',0.095
'17:48.794',0.185
'17:48.797',0.260
'17:48.800',0.300
'17:48.803',0.315
'17:48.806',0.315
'17:48.808',0.315
'17:48.811',0.330
'17:48.814',0.350
'17:48.817',0.380
'17:48.819',0.410
'17:48.822',0.410
'17:48.825',0.420
'17:48.828',0.420
'17:48.831',0.425
'17:48.833',0.435
'17:48.836',0.435
'17:48.839',0.440
'17:48.842',0.445
'17:48.844',0.460
'17:48.847',0.470
'17:48.850',0.485
'17:48.853',0.505
'17:48.856',0.485
'17:48.858',0.485
'17:48.861',0.490
'17:48.864',0.500
'17:48.867',0.510
'17:48.869',0.510
'17:48.872',0.515
'17:48.875',0.510
'17:48.878',0.540
'17:48.881',0.550
'17:48.883',0.560
'17:48.886',0.555
'17:48.889',0.550
'17:48.892',0.550
'17:48.894',0.555
'17:48.897',0.570
'17:48.900',0.575
'17:48.903',0.580
'17:48.906',0.575
'17:48.908',0.565
'17:48.911',0.570
'17:48.914',0.590
'17:48.917',0.575
'17:48.919',0.575
'17:48.922',0.565
'17:48.925',0.555
'17:48.928',0.555
'17:48.931',0.560
'17:48.933',0.570
'17:48.936',0.565
'17:48.939',0.540
'17:48.942',0.535
'17:48.944',0.515
'17:48.947',0.510
'17:48.950',0.515
'17:48.953',0.485
'17:48.956',0.445
'17:48.958',0.415
'17:48.961',0.395
'17:48.964',0.395
'17:48.967',0.385
'17:48.969',0.355
'17:48.972',0.330
'17:48.975',0.315
'17:48.978',0.295
'17:48.981',0.295
'17:48.983',0.285
'17:48.986',0.265
'17:48.989',0.230
'17:48.992',0.210
'17:48.994',0.210
'17:48.997',0.210
'17:49.000',0.205
'17:49.003',0.195
'17:49.006',0.175
'17:49.008',0.155
'17:49.011',0.155
'17:49.014',0.170
'17:49.017',0.175
'17:49.019',0.180
'17:49.022',0.175
'17:49.025',0.165
'17:49.028',0.170
'17:49.031',0.180
'17:49.033',0.180
'17:49.036',0.170
'17:49.039',0.150
'17:49.042',0.145
'17:49.044',0.155
'17:49.047',0.180
'17:49.050',0.180
'17:49.053',0.180
'17:49.056',0.160
'17:49.058',0.175
'17:49.061',0.180
'17:49.064',0.175
'17:49.067',0.190
'17:49.069',0.180
'17:49.072',0.150
'17:49.075',0.140
'17:49.078',0.160
'17:49.081',0.165
'17:49.083',0.180
'17:49.086',0.170
'17:49.089',0.155
'17:49.092',0.150
'17:49.094',0.145
'17:49.097',0.155
'17:49.100',0.185
'17:49.103',0.185
'17:49.106',0.165
'17:49.108',0.160
'17:49.111',0.160
'17:49.114',0.175
'17:49.117',0.170
'17:49.119',0.155
'17:49.122',0.145
'17:49.125',0.130
'17:49.128',0.150
'17:49.131',0.155
'17:49.133',0.160
'17:49.136',0.150
'17:49.139',0.145
'17:49.142',0.125
'17:49.144',0.135
'17:49.147',0.155
'17:49.150',0.170
'17:49.153',0.165
'17:49.156',0.140
'17:49.158',0.130
'17:49.161',0.115
'17:49.164',0.135
'17:49.167',0.140
'17:49.169',0.135
'17:49.172',0.120
'17:49.175',0.095
'17:49.178',0.110
'17:49.181',0.130
'17:49.183',0.150
'17:49.186',0.130
'17:49.189',0.120
'17:49.192',0.115
'17:49.194',0.115
'17:49.197',0.120
'17:49.200',0.130
'17:49.203',0.125
'17:49.206',0.110
'17:49.208',0.095
'17:49.211',0.105
'17:49.214',0.120
'17:49.217',0.120
'17:49.219',0.130
'17:49.222',0.110
'17:49.225',0.100
'17:49.228',0.100
'17:49.231',0.105
'17:49.233',0.115
'17:49.236',0.110
'17:49.239',0.100
'17:49.242',0.095
'17:49.244',0.090
'17:49.247',0.105
'17:49.250',0.110
'17:49.253',0.110
'17:49.256',0.100
'17:49.258',0.095
'17:49.261',0.110
'17:49.264',0.115
'17:49.267',0.130
'17:49.269',0.125
'17:49.272',0.110
'17:49.275',0.090
'17:49.278',0.085
'17:49.281',0.100
'17:49.283',0.100
'17:49.286',0.100
'17:49.289',0.090
'17:49.292',0.075
'17:49.294',0.070
'17:49.297',0.085
'17:49.300',0.100
'17:49.303',0.110
'17:49.306',0.105
'17:49.308',0.075
'17:49.311',0.085
'17:49.314',0.080
'17:49.317',0.070
'17:49.319',0.070
'17:49.322',0.085
'17:49.325',0.070
'17:49.328',0.075
'17:49.331',0.085
'17:49.333',0.095
'17:49.336',0.090
'17:49.339',0.095
'17:49.342',0.075
'17:49.344',0.075
'17:49.347',0.095
'17:49.350',0.095
'17:49.353',0.085
'17:49.356',0.085
'17:49.358',0.070
'17:49.361',0.085
'17:49.364',0.085
'17:49.367',0.100
'17:49.369',0.085
'17:49.372',0.075
'17:49.375',0.075
'17:49.378',0.070
'17:49.381',0.085
'17:49.383',0.090
'17:49.386',0.080
'17:49.389',0.075
'17:49.392',0.070
'17:49.394',0.065
'17:49.397',0.075
'17:49.400',0.095
'17:49.403',0.090
'17:49.406',0.085
'17:49.408',0.085
'17:49.411',0.090
'17:49.414',0.110
'17:49.417',0.095
'17:49.419',0.100
'17:49.422',0.065
'17:49.425',0.020
'17:49.428',-0.010
'17:49.431',0.005
'17:49.433',0.000
'17:49.436',0.000
'17:49.439',0.005
'17:49.442',-0.020
'17:49.444',-0.005
'17:49.447',0.005
'17:49.450',0.025
'17:49.453',0.010
'17:49.456',0.005
'17:49.458',-0.005
'17:49.461',-0.010
'17:49.464',0.025
'17:49.467',0.030
'17:49.469',0.050
'17:49.472',0.060
'17:49.475',0.050
'17:49.478',0.050
'17:49.481',0.055
'17:49.483',0.065
'17:49.486',0.060
'17:49.489',0.050
'17:49.492',0.045
'17:49.494',0.055
'17:49.497',0.055
'17:49.500',0.065
'17:49.503',0.060
'17:49.506',0.045
'17:49.508',0.040
'17:49.511',0.040
'17:49.514',0.050
'17:49.517',0.060
'17:49.519',0.055
'17:49.522',0.045
'17:49.525',0.035
'17:49.528',0.045
'17:49.531',0.040
'17:49.533',0.060
'17:49.536',0.050
'17:49.539',0.030
'17:49.542',0.005
'17:49.544',-0.015
'17:49.547',-0.055
'17:49.550',-0.130
'17:49.553',-0.215
'17:49.556',-0.305
'17:49.558',-0.305
'17:49.561',-0.310
'17:49.564',-0.275
'17:49.567',-0.230
'17:49.569',-0.140
'17:49.572',-0.035
'17:49.575',0.075
'17:49.578',0.150
'17:49.581',0.140
'17:49.583',0.095
'17:49.586',0.040
'17:49.589',0.030
'17:49.592',0.030
'17:49.594',0.055
'17:49.597',0.055
'17:49.600',0.070
'17:49.603',0.070
'17:49.606',0.075
'17:49.608',0.055
'17:49.611',0.065
'17:49.614',0.075
'17:49.617',0.075
'17:49.619',0.060
'17:49.622',0.050
'17:49.625',0.060
'17:49.628',0.070
'17:49.631',0.080
'17:49.633',0.070
'17:49.636',0.085
'17:49.639',0.060
'17:49.642',0.060
'17:49.644',0.065
'17:49.647',0.060
'17:49.650',0.060
'17:49.653',0.060
'17:49.656',0.045
'17:49.658',0.045
'17:49.661',0.055
'17:49.664',0.055
'17:49.667',0.065
'17:49.669',0.065
'17:49.672',0.040
'17:49.675',0.035
'17:49.678',0.035
'17:49.681',0.035
'17:49.683',0.040
'17:49.686',0.040
'17:49.689',0.020
'17:49.692',-0.005
'17:49.694',0.000
'17:49.697',0.005
'17:49.700',0.030
'17:49.703',0.015
'17:49.706',-0.005
'17:49.708',-0.025
'17:49.711',-0.015
'17:49.714',-0.020
'17:49.717',-0.010
'17:49.719',-0.035
'17:49.722',-0.045
'17:49.725',-0.055
'17:49.728',-0.065
'17:49.731',-0.075
'17:49.733',-0.080
'17:49.736',-0.095
'17:49.739',-0.110
'17:49.742',-0.130
'17:49.744',-0.135
'17:49.747',-0.130
'17:49.750',-0.125
'17:49.753',-0.145
'17:49.756',-0.160
'17:49.758',-0.175
'17:49.761',-0.175
'17:49.764',-0.190
'17:49.767',-0.200
'17:49.769',-0.220
'17:49.772',-0.235
'17:49.775',-0.235
'17:49.778',-0.240
'17:49.781',-0.225
'17:49.783',-0.225
'17:49.786',-0.225
'17:49.789',-0.235
'17:49.792',-0.245
'17:49.794',-0.245
'17:49.797',-0.220
'17:49.800',-0.200
'17:49.803',-0.185
'17:49.806',-0.170
'17:49.808',-0.170
'17:49.811',-0.160
'17:49.814',-0.125
'17:49.817',-0.105
'17:49.819',-0.085
'17:49.822',-0.075
'17:49.825',-0.060
'17:49.828',-0.040
'17:49.831',-0.010
'17:49.833',0.020
'17:49.836',0.035
'17:49.839',0.035
'17:49.842',0.035
'17:49.844',0.050
'17:49.847',0.085
'17:49.850',0.095
'17:49.853',0.100
'17:49.856',0.105
'17:49.858',0.090
'17:49.861',0.095
'17:49.864',0.105
'17:49.867',0.115
'17:49.869',0.120
'17:49.872',0.105
'17:49.875',0.105
'17:49.878',0.115
'17:49.881',0.130
'17:49.883',0.130
'17:49.886',0.145
'17:49.889',0.125
'17:49.892',0.125
'17:49.894',0.135
'17:49.897',0.145
'17:49.900',0.135
'17:49.903',0.120
'17:49.906',0.125
'17:49.908',0.125
'17:49.911',0.125
'17:49.914',0.125
'17:49.917',0.135
'17:49.919',0.135
'17:49.922',0.120
'17:49.925',0.095
'17:49.928',0.110
'17:49.931',0.125
'17:49.933',0.125
'17:49.936',0.130
'17:49.939',0.120
'17:49.942',0.100
'17:49.944',0.105
'17:49.947',0.110
'17:49.950',0.115
'17:49.953',0.125
'17:49.956',0.100
'17:49.958',0.085
'17:49.961',0.085
'17:49.964',0.095
'17:49.967',0.100
'17:49.969',0.105
'17:49.972',0.085
'17:49.975',0.085
'17:49.978',0.085
'17:49.981',0.090
'17:49.983',0.105
'17:49.986',0.110
'17:49.989',0.090
'17:49.992',0.090
'17:49.994',0.090
'17:49.997',0.105
'17:50.000',0.110
'17:50.003',0.110
'17:50.006',0.105
'17:50.008',0.090
'17:50.011',0.080
'17:50.014',0.085
'17:50.017',0.105
'17:50.019',0.090
'17:50.022',0.085
'17:50.025',0.075
'17:50.028',0.085
'17:50.031',0.095
'17:50.033',0.100
'17:50.036',0.100
'17:50.039',0.105
'17:50.042',0.095
'17:50.044',0.105
'17:50.047',0.100
'17:50.050',0.120
'17:50.053',0.110
'17:50.056',0.095
'17:50.058',0.090
'17:50.061',0.090
'17:50.064',0.105
'17:50.067',0.120
'17:50.069',0.105
'17:50.072',0.085
'17:50.075',0.080
'17:50.078',0.070
'17:50.081',0.075
'17:50.083',0.085
'17:50.086',0.085
'17:50.089',0.085
'17:50.092',0.070
'17:50.094',0.080
'17:50.097',0.095
'17:50.100',0.100
'17:50.103',0.095
'17:50.106',0.095
'17:50.108',0.070
'17:50.111',0.075
'17:50.114',0.090
'17:50.117',0.085
'17:50.119',0.075
'17:50.122',0.070
'17:50.125',0.055
'17:50.128',0.060
'17:50.131',0.070
'17:50.133',0.080
'17:50.136',0.080
'17:50.139',0.060
'17:50.142',0.035
'17:50.144',0.035
'17:50.147',0.040
'17:50.150',0.040
'17:50.153',0.020
'17:50.156',-0.040
'17:50.158',-0.130
'17:50.161',-0.220
'17:50.164',-0.260
'17:50.167',-0.265
'17:50.169',-0.245
'17:50.172',-0.230
'17:50.175',-0.190
'17:50.178',-0.095
'17:50.181',0.065
'17:50.183',0.160
'17:50.186',0.190
'17:50.189',0.130
'17:50.192',0.055
'17:50.194',0.020
'17:50.197',0.025
'17:50.200',0.055
'17:50.203',0.075
'17:50.206',0.060
'17:50.208',0.080
'17:50.211',0.075
'17:50.214',0.075
'17:50.217',0.095
'17:50.219',0.085
'17:50.222',0.075
'17:50.225',0.060
'17:50.228',0.075
'17:50.231',0.095
'17:50.233',0.100
'17:50.236',0.090
'17:50.239',0.085
'17:50.242',0.070
'17:50.244',0.065
'17:50.247',0.080
'17:50.250',0.095
'17:50.253',0.085
'17:50.256',0.075
'17:50.258',0.065
'17:50.261',0.065
'17:50.264',0.075
'17:50.267',0.070
'17:50.269',0.065
'17:50.272',0.060
'17:50.275',0.050
'17:50.278',0.065
'17:50.281',0.065
'17:50.283',0.080
'17:50.286',0.070
'17:50.289',0.055
'17:50.292',0.050
'17:50.294',0.045
'17:50.297',0.040
'17:50.300',0.055
'17:50.303',0.055
'17:50.306',0.035
'17:50.308',0.020
'17:50.311',0.025
'17:50.314',0.035
'17:50.317',0.030
'17:50.319',0.030
'17:50.322',0.020
'17:50.325',-0.010
'17:50.328',-0.015
'17:50.331',-0.010
'17:50.333',-0.005
'17:50.336',-0.040
'17:50.339',-0.050
'17:50.342',-0.085
'17:50.344',-0.080
'17:50.347',-0.085
'17:50.350',-0.085
'17:50.353',-0.100
'17:50.356',-0.115
'17:50.358',-0.130
'17:50.361',-0.155
'17:50.364',-0.155
'17:50.367',-0.145
'17:50.369',-0.155
'17:50.372',-0.175
'17:50.375',-0.195
'17:50.378',-0.195
'17:50.381',-0.190
'17:50.383',-0.205
'17:50.386',-0.200
'17:50.389',-0.200
'17:50.392',-0.200
'17:50.394',-0.180
'17:50.397',-0.160
'17:50.400',-0.140
'17:50.403',-0.115
'17:50.406',-0.105
'17:50.408',-0.085
'17:50.411',-0.055
'17:50.414',0.010
'17:50.417',0.040
'17:50.419',0.055
'17:50.422',0.055
'17:50.425',0.080
'17:50.428',0.095
'17:50.431',0.115
'17:50.433',0.150
'17:50.436',0.150
'17:50.439',0.135
'17:50.442',0.135
'17:50.444',0.145
'17:50.447',0.140
'17:50.450',0.165
'17:50.453',0.170
'17:50.456',0.155
'17:50.458',0.160
'17:50.461',0.165
'17:50.464',0.170
'17:50.467',0.185
'17:50.469',0.180
'17:50.472',0.155
'17:50.475',0.160
'17:50.478',0.170
'17:50.481',0.170
'17:50.483',0.180
'17:50.486',0.195
'17:50.489',0.180
'17:50.492',0.170
'17:50.494',0.170
'17:50.497',0.195
'17:50.500',0.200
'17:50.503',0.195
'17:50.506',0.185
'17:50.508',0.170
'17:50.511',0.175
'17:50.514',0.175
'17:50.517',0.185
'17:50.519',0.195
'17:50.522',0.180
'17:50.525',0.170
'17:50.528',0.170
'17:50.531',0.170
'17:50.533',0.180
'17:50.536',0.165
'17:50.539',0.160
'17:50.542',0.145
'17:50.544',0.165
'17:50.547',0.165
'17:50.550',0.170
'17:50.553',0.155
'17:50.556',0.155
'17:50.558',0.145
'17:50.561',0.150
'17:50.564',0.160
'17:50.567',0.165
'17:50.569',0.155
'17:50.572',0.160
'17:50.575',0.155
'17:50.578',0.160
'17:50.581',0.160
'17:50.583',0.165
'17:50.586',0.165
'17:50.589',0.140
'17:50.592',0.115
'17:50.594',0.080
'17:50.597',0.040
'17:50.600',0.010
'17:50.603',-0.030
'17:50.606',-0.080
'17:50.608',-0.130
'17:50.611',-0.180
'17:50.614',-0.245
'17:50.617',-0.325
'17:50.619',-0.415
'17:50.622',-0.510
'17:50.625',-0.600
'17:50.628',-0.655
'17:50.631',-0.705
'17:50.633',-0.735
'17:50.636',-0.800
'17:50.639',-0.870
'17:50.642',-0.925
'17:50.644',-0.970
'17:50.647',-0.995
'17:50.650',-1.000
'17:50.653',-1.000
'17:50.656',-1.005
'17:50.658',-0.995
'17:50.661',-0.940
'17:50.664',-0.880
'17:50.667',-0.790
'17:50.669',-0.740
'17:50.672',-0.670
'17:50.675',-0.620
'17:50.678',-0.530
'17:50.681',-0.445
'17:50.683',-0.355
'17:50.686',-0.320
'17:50.689',-0.280
'17:50.692',-0.280
'17:50.694',-0.245
'17:50.697',-0.220
'17:50.700',-0.190
'17:50.703',-0.175
'17:50.706',-0.175
'17:50.708',-0.205
'17:50.711',-0.215
'17:50.714',-0.185
'17:50.717',-0.165
'17:50.719',-0.105
'17:50.722',-0.065
'17:50.725',-0.005
'17:50.728',0.065
'17:50.731',0.150
'17:50.733',0.215
'17:50.736',0.265
'17:50.739',0.255
'17:50.742',0.265
'17:50.744',0.295
'17:50.747',0.330
'17:50.750',0.355
'17:50.753',0.390
'17:50.756',0.390
'17:50.758',0.405
'17:50.761',0.400
'17:50.764',0.415
'17:50.767',0.435
'17:50.769',0.445
'17:50.772',0.435
'17:50.775',0.430
'17:50.778',0.450
'17:50.781',0.465
'17:50.783',0.465
'17:50.786',0.470
'17:50.789',0.455
'17:50.792',0.460
'17:50.794',0.470
'17:50.797',0.485
'17:50.800',0.515
'17:50.803',0.515
'17:50.806',0.515
'17:50.808',0.505
'17:50.811',0.505
'17:50.814',0.525
'17:50.817',0.555
'17:50.819',0.555
'17:50.822',0.550
'17:50.825',0.545
'17:50.828',0.560
'17:50.831',0.570
'17:50.833',0.600
'17:50.836',0.605
'17:50.839',0.605
'17:50.842',0.600
'17:50.844',0.605
'17:50.847',0.620
'17:50.850',0.620
'17:50.853',0.620
'17:50.856',0.600
'17:50.858',0.580
'17:50.861',0.585
'17:50.864',0.595
'17:50.867',0.605
'17:50.869',0.595
'17:50.872',0.590
'17:50.875',0.580
'17:50.878',0.570
'17:50.881',0.560
'17:50.883',0.565
'17:50.886',0.540
'17:50.889',0.515
'17:50.892',0.485
'17:50.894',0.485
'17:50.897',0.475
'17:50.900',0.455
'17:50.903',0.435
'17:50.906',0.410
'17:50.908',0.405
'17:50.911',0.410
'17:50.914',0.395
'17:50.917',0.380
'17:50.919',0.355
'17:50.922',0.305
'17:50.925',0.270
'17:50.928',0.265
'17:50.931',0.265
'17:50.933',0.270
'17:50.936',0.250
'17:50.939',0.230
'17:50.942',0.210
'17:50.944',0.220
'17:50.947',0.230
'17:50.950',0.230
'17:50.953',0.230
'17:50.956',0.210
'17:50.958',0.195
'17:50.961',0.165
'17:50.964',0.165
'17:50.967',0.175
'17:50.969',0.200
'17:50.972',0.200
'17:50.975',0.200
'17:50.978',0.190
'17:50.981',0.215
'17:50.983',0.220
'17:50.986',0.230
'17:50.989',0.210
'17:50.992',0.175
'17:50.994',0.195
'17:50.997',0.200
'17:51.000',0.220
'17:51.003',0.220
'17:51.006',0.210
'17:51.008',0.205
'17:51.011',0.205
'17:51.014',0.240
'17:51.017',0.220
'17:51.019',0.215
'17:51.022',0.200
'17:51.025',0.185
'17:51.028',0.205
'17:51.031',0.225
'17:51.033',0.230
'17:51.036',0.240
'17:51.039',0.230
'17:51.042',0.210
'17:51.044',0.195
'17:51.047',0.200
'17:51.050',0.225
'17:51.053',0.215
'17:51.056',0.200
'17:51.058',0.190
'17:51.061',0.190
'17:51.064',0.190
'17:51.067',0.195
'17:51.069',0.195
'17:51.072',0.190
'17:51.075',0.175
'17:51.078',0.180
'17:51.081',0.180
'17:51.083',0.180
'17:51.086',0.205
'17:51.089',0.200
'17:51.092',0.200
'17:51.094',0.200
'17:51.097',0.205
'17:51.100',0.210
'17:51.103',0.175
'17:51.106',0.150
'17:51.108',0.110
'17:51.111',0.080
'17:51.114',0.045
'17:51.117',0.015
'17:51.119',-0.035
'17:51.122',-0.100
'17:51.125',-0.175
'17:51.128',-0.225
'17:51.131',-0.280
'17:51.133',-0.350
'17:51.136',-0.420
'17:51.139',-0.510
'17:51.142',-0.565
'17:51.144',-0.610
'17:51.147',-0.645
'17:51.150',-0.635
'17:51.153',-0.655
'17:51.156',-0.695
'17:51.158',-0.725
'17:51.161',-0.770
'17:51.164',-0.775
'17:51.167',-0.795
'17:51.169',-0.800
'17:51.172',-0.820
'17:51.175',-0.800
'17:51.178',-0.745
'17:51.181',-0.695
'17:51.183',-0.610
'17:51.186',-0.540
'17:51.189',-0.465
'17:51.192',-0.410
'17:51.194',-0.340
'17:51.197',-0.265
'17:51.200',-0.210
'17:51.203',-0.180
'17:51.206',-0.185
'17:51.208',-0.195
'17:51.211',-0.185
'17:51.214',-0.190
'17:51.217',-0.190
'17:51.219',-0.205
'17:51.222',-0.210
'17:51.225',-0.220
'17:51.228',-0.200
'17:51.231',-0.140
'17:51.233',-0.045
'17:51.236',0.045
'17:51.239',0.110
'17:51.242',0.165
'17:51.244',0.210
'17:51.247',0.250
'17:51.250',0.295
'17:51.253',0.310
'17:51.256',0.310
'17:51.258',0.330
'17:51.261',0.330
'17:51.264',0.350
'17:51.267',0.375
'17:51.269',0.385
'17:51.272',0.360
'17:51.275',0.355
'17:51.278',0.370
'17:51.281',0.380
'17:51.283',0.405
'17:51.286',0.410
'17:51.289',0.390
'17:51.292',0.375
'17:51.294',0.380
'17:51.297',0.400
'17:51.300',0.445
'17:51.303',0.460
'17:51.306',0.450
'17:51.308',0.440
'17:51.311',0.445
'17:51.314',0.445
'17:51.317',0.450
'17:51.319',0.445
'17:51.322',0.445
'17:51.325',0.445
'17:51.328',0.465
'17:51.331',0.470
'17:51.333',0.485
'17:51.336',0.490
'17:51.339',0.465
'17:51.342',0.445
'17:51.344',0.465
'17:51.347',0.480
'17:51.350',0.500
'17:51.353',0.505
'17:51.356',0.505
'17:51.358',0.495
'17:51.361',0.485
'17:51.364',0.480
'17:51.367',0.495
'17:51.369',0.500
'17:51.372',0.475
'17:51.375',0.465
'17:51.378',0.455
'17:51.381',0.455
'17:51.383',0.455
'17:51.386',0.450
'17:51.389',0.435
'17:51.392',0.425
'17:51.394',0.415
'17:51.397',0.430
'17:51.400',0.430
'17:51.403',0.400
'17:51.406',0.360
'17:51.408',0.335
'17:51.411',0.320
'17:51.414',0.330
'17:51.417',0.340
'17:51.419',0.330
'17:51.422',0.305
'17:51.425',0.280
'17:51.428',0.250
'17:51.431',0.250
'17:51.433',0.255
'17:51.436',0.245
'17:51.439',0.230
'17:51.442',0.215
'17:51.444',0.205
'17:51.447',0.210
'17:51.450',0.215
'17:51.453',0.200
'17:51.456',0.170
'17:51.458',0.165
'17:51.461',0.150
'17:51.464',0.170
'17:51.467',0.175
'17:51.469',0.175
'17:51.472',0.160
'17:51.475',0.150
'17:51.478',0.150
'17:51.481',0.145
'17:51.483',0.155
'17:51.486',0.140
'17:51.489',0.130
'17:51.492',0.130
'17:51.494',0.135
'17:51.497',0.150
'17:51.500',0.165
'17:51.503',0.160
'17:51.506',0.160
'17:51.508',0.160
'17:51.511',0.165
'17:51.514',0.175
'17:51.517',0.170
'17:51.519',0.160
'17:51.522',0.155
'17:51.525',0.165
'17:51.528',0.160
'17:51.531',0.155
'17:51.533',0.165
'17:51.536',0.165
'17:51.539',0.145
'17:51.542',0.135
'17:51.544',0.130
'17:51.547',0.145
'17:51.550',0.165
'17:51.553',0.165
'17:51.556',0.165
'17:51.558',0.135
'17:51.561',0.120
'17:51.564',0.140
'17:51.567',0.145
'17:51.569',0.125
'17:51.572',0.110
'17:51.575',0.100
'17:51.578',0.095
'17:51.581',0.095
'17:51.583',0.055
'17:51.586',0.010
'17:51.589',-0.055
'17:51.592',-0.125
'17:51.594',-0.185
'17:51.597',-0.240
'17:51.600',-0.270
'17:51.603',-0.295
'17:51.606',-0.305
'17:51.608',-0.280
'17:51.611',-0.190
'17:51.614',-0.035
'17:51.617',0.165
'17:51.619',0.365
'17:51.622',0.515
'17:51.625',0.560
'17:51.628',0.510
'17:51.631',0.440
'17:51.633',0.355
'17:51.636',0.285
'17:51.639',0.220
'17:51.642',0.175
'17:51.644',0.130
'17:51.647',0.140
'17:51.650',0.160
'17:51.653',0.135
'17:51.656',0.115
'17:51.658',0.100
'17:51.661',0.085
'17:51.664',0.100
'17:51.667',0.120
'17:51.669',0.115
'17:51.672',0.095
'17:51.675',0.085
'17:51.678',0.090
'17:51.681',0.110
'17:51.683',0.130
'17:51.686',0.110
'17:51.689',0.090
'17:51.692',0.080
'17:51.694',0.070
'17:51.697',0.095
'17:51.700',0.105
'17:51.703',0.100
'17:51.706',0.075
'17:51.708',0.065
'17:51.711',0.070
'17:51.714',0.075
'17:51.717',0.075
'17:51.719',0.070
'17:51.722',0.060
'17:51.725',0.050
'17:51.728',0.055
'17:51.731',0.070
'17:51.733',0.070
'17:51.736',0.040
'17:51.739',0.035
'17:51.742',0.030
'17:51.744',0.040
'17:51.747',0.020
'17:51.750',0.035
'17:51.753',0.035
'17:51.756',0.025
'17:51.758',-0.005
'17:51.761',-0.005
'17:51.764',-0.005
'17:51.767',0.010
'17:51.769',0.000
'17:51.772',0.000
'17:51.775',-0.025
'17:51.778',-0.020
'17:51.781',-0.025
'17:51.783',-0.020
'17:51.786',-0.045
'17:51.789',-0.050
'17:51.792',-0.080
'17:51.794',-0.085
'17:51.797',-0.090
'17:51.800',-0.100
'17:51.803',-0.100
'17:51.806',-0.120
'17:51.808',-0.140
'17:51.811',-0.155
'17:51.814',-0.155
'17:51.817',-0.135
'17:51.819',-0.150
'17:51.822',-0.175
'17:51.825',-0.200
'17:51.828',-0.235
'17:51.831',-0.225
'17:51.833',-0.210
'17:51.836',-0.215
'17:51.839',-0.225
'17:51.842',-0.235
'17:51.844',-0.240
'17:51.847',-0.235
'17:51.850',-0.210
'17:51.853',-0.215
'17:51.856',-0.225
'17:51.858',-0.230
'17:51.861',-0.230
'17:51.864',-0.195
'17:51.867',-0.160
'17:51.869',-0.160
'17:51.872',-0.140
'17:51.875',-0.130
'17:51.878',-0.120
'17:51.881',-0.090
'17:51.883',-0.055
'17:51.886',-0.040
'17:51.889',-0.045
'17:51.892',-0.025
'17:51.894',-0.015
'17:51.897',0.025
'17:51.900',0.070
'17:51.903',0.085
'17:51.906',0.070
'17:51.908',0.070
'17:51.911',0.070
'17:51.914',0.090
'17:51.917',0.115
'17:51.919',0.115
'17:51.922',0.120
'17:51.925',0.115
'17:51.928',0.120
'17:51.931',0.125
'17:51.933',0.125
'17:51.936',0.140
'17:51.939',0.120
'17:51.942',0.095
'17:51.944',0.095
'17:51.947',0.105
'17:51.950',0.120
'17:51.953',0.125
'17:51.956',0.120
'17:51.958',0.110
'17:51.961',0.115
'17:51.964',0.110
'17:51.967',0.130
'17:51.969',0.130
'17:51.972',0.115
'17:51.975',0.090
'17:51.978',0.075
'17:51.981',0.085
'17:51.983',0.095
'17:51.986',0.105
'17:51.989',0.100
'17:51.992',0.090
'17:51.994',0.100
'17:51.997',0.110
'17:52.000',0.115
'17:52.003',0.110
'17:52.006',0.100
'17:52.008',0.090
'17:52.011',0.100
'17:52.014',0.100
'17:52.017',0.095
'17:52.019',0.100
'17:52.022',0.090
'17:52.025',0.070
'17:52.028',0.065
'17:52.031',0.095
'17:52.033',0.095
'17:52.036',0.100
'17:52.039',0.085
'17:52.042',0.075
'17:52.044',0.085
'17:52.047',0.085
'17:52.050',0.095
'17:52.053',0.100
'17:52.056',0.085
'17:52.058',0.070
'17:52.061',0.080
'17:52.064',0.075
'17:52.067',0.090
'17:52.069',0.095
'17:52.072',0.085
'17:52.075',0.090
'17:52.078',0.095
'17:52.081',0.110
'17:52.083',0.130
'17:52.086',0.140
'17:52.089',0.140
'17:52.092',0.135
'17:52.094',0.135
'17:52.097',0.150
'17:52.100',0.165
'17:52.103',0.165
'17:52.106',0.145
'17:52.108',0.130
'17:52.111',0.100
'17:52.114',0.090
'17:52.117',0.110
'17:52.119',0.090
'17:52.122',0.070
'17:52.125',0.060
'17:52.128',0.075
'17:52.131',0.075
'17:52.133',0.095
'17:52.136',0.095
'17:52.139',0.080
'17:52.142',0.055
'17:52.144',0.040
'17:52.147',0.045
'17:52.150',0.075
'17:52.153',0.060
'17:52.156',0.045
'17:52.158',0.020
'17:52.161',0.020
'17:52.164',0.020
'17:52.167',0.000
'17:52.169',-0.020
'17:52.172',-0.110
'17:52.175',-0.220
'17:52.178',-0.300
'17:52.181',-0.335
'17:52.183',-0.320
'17:52.186',-0.315
'17:52.189',-0.310
'17:52.192',-0.315
'17:52.194',-0.250
'17:52.197',-0.140
'17:52.200',-0.005
'17:52.203',0.055
'17:52.206',0.090
'17:52.208',0.070
'17:52.211',0.010
'17:52.214',-0.015
'17:52.217',-0.005
'17:52.219',0.010
'17:52.222',0.025
'17:52.225',0.040
'17:52.228',0.035
'17:52.231',0.055
'17:52.233',0.070
'17:52.236',0.065
'17:52.239',0.065
'17:52.242',0.055
'17:52.244',0.050
'17:52.247',0.065
'17:52.250',0.075
'17:52.253',0.075
'17:52.256',0.055
'17:52.258',0.055
'17:52.261',0.050
'17:52.264',0.060
'17:52.267',0.080
'17:52.269',0.070
'17:52.272',0.070
'17:52.275',0.055
'17:52.278',0.055
'17:52.281',0.065
'17:52.283',0.070
'17:52.286',0.075
'17:52.289',0.060
'17:52.292',0.060
'17:52.294',0.060
'17:52.297',0.070
'17:52.300',0.080
'17:52.303',0.065
'17:52.306',0.050
'17:52.308',0.045
'17:52.311',0.040
'17:52.314',0.055
'17:52.317',0.075
'17:52.319',0.065
'17:52.322',0.055
'17:52.325',0.040
'17:52.328',0.030
'17:52.331',0.045
'17:52.333',0.060
'17:52.336',0.055
'17:52.339',0.040
'17:52.342',0.025
'17:52.344',0.020
'17:52.347',0.020
'17:52.350',0.020
'17:52.353',0.025
'17:52.356',0.015
'17:52.358',0.015
'17:52.361',0.000
'17:52.364',0.000
'17:52.367',-0.010
'17:52.369',-0.010
'17:52.372',-0.030
'17:52.375',-0.045
'17:52.378',-0.045
'17:52.381',-0.040
'17:52.383',-0.040
'17:52.386',-0.045
'17:52.389',-0.070
'17:52.392',-0.100
'17:52.394',-0.100
'17:52.397',-0.100
'17:52.400',-0.090
'17:52.403',-0.110
'17:52.406',-0.115
'17:52.408',-0.130
'17:52.411',-0.135
'17:52.414',-0.130
'17:52.417',-0.135
'17:52.419',-0.135
'17:52.422',-0.150
'17:52.425',-0.160
'17:52.428',-0.160
'17:52.431',-0.150
'17:52.433',-0.130
'17:52.436',-0.135
'17:52.439',-0.135
'17:52.442',-0.135
'17:52.444',-0.130
'17:52.447',-0.110
'17:52.450',-0.085
'17:52.453',-0.065
'17:52.456',-0.060
'17:52.458',-0.050
'17:52.461',-0.040
'17:52.464',-0.015
'17:52.467',0.015
'17:52.469',0.020
'17:52.472',0.025
'17:52.475',0.040
'17:52.478',0.055
'17:52.481',0.080
'17:52.483',0.100
'17:52.486',0.115
'17:52.489',0.115
'17:52.492',0.115
'17:52.494',0.130
'17:52.497',0.135
'17:52.500',0.155
'17:52.503',0.155
'17:52.506',0.150
'17:52.508',0.150
'17:52.511',0.145
'17:52.514',0.155
'17:52.517',0.180
'17:52.519',0.175
'17:52.522',0.170
'17:52.525',0.165
'17:52.528',0.160
'17:52.531',0.175
'17:52.533',0.190
'17:52.536',0.200
'17:52.539',0.180
'17:52.542',0.175
'17:52.544',0.180
'17:52.547',0.185
'17:52.550',0.205
'17:52.553',0.190
'17:52.556',0.185
'17:52.558',0.165
'17:52.561',0.180
'17:52.564',0.180
'17:52.567',0.190
'17:52.569',0.200
'17:52.572',0.190
'17:52.575',0.180
'17:52.578',0.170
'17:52.581',0.185
'17:52.583',0.190
'17:52.586',0.195
'17:52.589',0.170
'17:52.592',0.175
'17:52.594',0.155
'17:52.597',0.180
'17:52.600',0.180
'17:52.603',0.175
'17:52.606',0.175
'17:52.608',0.160
'17:52.611',0.170
'17:52.614',0.160
'17:52.617',0.175
'17:52.619',0.185
'17:52.622',0.160
'17:52.625',0.150
'17:52.628',0.155
'17:52.631',0.165
'17:52.633',0.175
'17:52.636',0.175
'17:52.639',0.165
'17:52.642',0.155
'17:52.644',0.155
'17:52.647',0.160
'17:52.650',0.170
'17:52.653',0.175
'17:52.656',0.175
'17:52.658',0.160
'17:52.661',0.155
'17:52.664',0.160
'17:52.667',0.170
'17:52.669',0.175
'17:52.672',0.175
'17:52.675',0.150
'17:52.678',0.160
'17:52.681',0.165
'17:52.683',0.180
'17:52.686',0.175
'17:52.689',0.170
'17:52.692',0.145
'17:52.694',0.155
'17:52.697',0.165
'17:52.700',0.170
'17:52.703',0.175
'17:52.706',0.150
'17:52.708',0.145
'17:52.711',0.145
'17:52.714',0.170
'17:52.717',0.170
'17:52.719',0.160
'17:52.722',0.155
'17:52.725',0.140
'17:52.728',0.140
'17:52.731',0.150
'17:52.733',0.165
'17:52.736',0.165
'17:52.739',0.145
'17:52.742',0.130
'17:52.744',0.130
'17:52.747',0.140
'17:52.750',0.155
'17:52.753',0.155
'17:52.756',0.140
'17:52.758',0.135
'17:52.761',0.135
'17:52.764',0.140
'17:52.767',0.150
'17:52.769',0.145
'17:52.772',0.135
'17:52.775',0.125
'17:52.778',0.120
'17:52.781',0.120
'17:52.783',0.145
'17:52.786',0.145
'17:52.789',0.150
'17:52.792',0.150
'17:52.794',0.145
'17:52.797',0.180
'17:52.800',0.215
'17:52.803',0.220
'17:52.806',0.220
'17:52.808',0.225
'17:52.811',0.225
'17:52.814',0.240
'17:52.817',0.245
'17:52.819',0.245
'17:52.822',0.210
'17:52.825',0.190
'17:52.828',0.195
'17:52.831',0.215
'17:52.833',0.195
'17:52.836',0.135
'17:52.839',0.045
'17:52.842',-0.055
'17:52.844',-0.140
'17:52.847',-0.200
'17:52.850',-0.275
'17:52.853',-0.340
'17:52.856',-0.450
'17:52.858',-0.550
'17:52.861',-0.620
'17:52.864',-0.675
'17:52.867',-0.715
'17:52.869',-0.760
'17:52.872',-0.810
'17:52.875',-0.880
'17:52.878',-0.970
'17:52.881',-1.065
'17:52.883',-1.130
'17:52.886',-1.165
'17:52.889',-1.190
'17:52.892',-1.215
'17:52.894',-1.190
'17:52.897',-1.110
'17:52.900',-0.955
'17:52.903',-0.750
'17:52.906',-0.545
'17:52.908',-0.330
'17:52.911',-0.145
'17:52.914',-0.035
'17:52.917',0.020
'17:52.919',0.060
'17:52.922',0.070
'17:52.925',0.095
'17:52.928',0.120
'17:52.931',0.155
'17:52.933',0.175
'17:52.936',0.190
'17:52.939',0.185
'17:52.942',0.195
'17:52.944',0.210
'17:52.947',0.230
'17:52.950',0.245
'17:52.953',0.240
'17:52.956',0.240
'17:52.958',0.230
'17:52.961',0.225
'17:52.964',0.245
'17:52.967',0.255
'17:52.969',0.265
'17:52.972',0.255
'17:52.975',0.260
'17:52.978',0.250
'17:52.981',0.265
'17:52.983',0.280
'17:52.986',0.285
'17:52.989',0.275
'17:52.992',0.265
'17:52.994',0.265
'17:52.997',0.295
'17:53.000',0.305
'17:53.003',0.300
'17:53.006',0.295
'17:53.008',0.285
'17:53.011',0.280
'17:53.014',0.305
'17:53.017',0.315
'17:53.019',0.320
'17:53.022',0.320
'17:53.025',0.305
'17:53.028',0.310
'17:53.031',0.335
'17:53.033',0.335
'17:53.036',0.345
'17:53.039',0.340
'17:53.042',0.335
'17:53.044',0.340
'17:53.047',0.350
'17:53.050',0.360
'17:53.053',0.365
'17:53.056',0.370
'17:53.058',0.350
'17:53.061',0.350
'17:53.064',0.350
'17:53.067',0.365
'17:53.069',0.370
'17:53.072',0.345
'17:53.075',0.335
'17:53.078',0.325
'17:53.081',0.335
'17:53.083',0.350
'17:53.086',0.335
'17:53.089',0.310
'17:53.092',0.290
'17:53.094',0.285
'17:53.097',0.280
'17:53.100',0.285
'17:53.103',0.265
'17:53.106',0.255
'17:53.108',0.230
'17:53.111',0.220
'17:53.114',0.215
'17:53.117',0.220
'17:53.119',0.200
'17:53.122',0.180
'17:53.125',0.155
'17:53.128',0.145
'17:53.131',0.155
'17:53.133',0.140
'17:53.136',0.145
'17:53.139',0.125
'17:53.142',0.110
'17:53.144',0.100
'17:53.147',0.115
'17:53.150',0.135
'17:53.153',0.135
'17:53.156',0.125
'17:53.158',0.115
'17:53.161',0.120
'17:53.164',0.130
'17:53.167',0.135
'17:53.169',0.145
'17:53.172',0.135
'17:53.175',0.145
'17:53.178',0.140
'17:53.181',0.160
'17:53.183',0.165
'17:53.186',0.165
'17:53.189',0.155
'17:53.192',0.150
'17:53.194',0.145
'17:53.197',0.160
'17:53.200',0.175
'17:53.203',0.165
'17:53.206',0.155
'17:53.208',0.150
'17:53.211',0.140
'17:53.214',0.160
'17:53.217',0.170
'17:53.219',0.170
'17:53.222',0.150
'17:53.225',0.160
'17:53.228',0.160
'17:53.231',0.160
'17:53.233',0.160
'17:53.236',0.170
'17:53.239',0.150
'17:53.242',0.150
'17:53.244',0.150
'17:53.247',0.165
'17:53.250',0.175
'17:53.253',0.175
'17:53.256',0.165
'17:53.258',0.140
'17:53.261',0.140
'17:53.264',0.135
'17:53.267',0.130
'17:53.269',0.115
'17:53.272',0.075
'17:53.275',0.045
'17:53.278',0.005
'17:53.281',-0.020
'17:53.283',-0.060
'17:53.286',-0.095
'17:53.289',-0.135
'17:53.292',-0.190
'17:53.294',-0.240
'17:53.297',-0.290
'17:53.300',-0.340
'17:53.303',-0.410
'17:53.306',-0.465
'17:53.308',-0.550
'17:53.311',-0.600
'17:53.314',-0.635
'17:53.317',-0.680
'17:53.319',-0.715
'17:53.322',-0.775
'17:53.325',-0.860
'17:53.328',-0.890
'17:53.331',-0.885
'17:53.333',-0.875
'17:53.336',-0.875
'17:53.339',-0.870
'17:53.342',-0.870
'17:53.344',-0.815
'17:53.347',-0.735
'17:53.350',-0.670
'17:53.353',-0.595
'17:53.356',-0.540
'17:53.358',-0.500
'17:53.361',-0.435
'17:53.364',-0.375
'17:53.367',-0.345
'17:53.369',-0.340
'17:53.372',-0.320
'17:53.375',-0.335
'17:53.378',-0.325
'17:53.381',-0.310
'17:53.383',-0.280
'17:53.386',-0.265
'17:53.389',-0.265
'17:53.392',-0.250
'17:53.394',-0.215
'17:53.397',-0.140
'17:53.400',-0.060
'17:53.403',0.055
'17:53.406',0.125
'17:53.408',0.175
'17:53.411',0.215
'17:53.414',0.265
'17:53.417',0.280
'17:53.419',0.290
'17:53.422',0.300
'17:53.425',0.295
'17:53.428',0.305
'17:53.431',0.325
'17:53.433',0.345
'17:53.436',0.370
'17:53.439',0.355
'17:53.442',0.365
'17:53.444',0.365
'17:53.447',0.385
'17:53.450',0.395
'17:53.453',0.395
'17:53.456',0.400
'17:53.458',0.400
'17:53.461',0.395
'17:53.464',0.405
'17:53.467',0.415
'17:53.469',0.415
'17:53.472',0.410
'17:53.475',0.405
'17:53.478',0.410
'17:53.481',0.425
'17:53.483',0.420
'17:53.486',0.440
'17:53.489',0.430
'17:53.492',0.435
'17:53.494',0.425
'17:53.497',0.435
'17:53.500',0.450
'17:53.503',0.445
'17:53.506',0.445
'17:53.508',0.425
'17:53.511',0.445
'17:53.514',0.460
'17:53.517',0.465
'17:53.519',0.460
'17:53.522',0.450
'17:53.525',0.430
'17:53.528',0.425
'17:53.531',0.425
'17:53.533',0.440
'17:53.536',0.430
'17:53.539',0.425
'17:53.542',0.395
'17:53.544',0.385
'17:53.547',0.385
'17:53.550',0.385
'17:53.553',0.350
'17:53.556',0.310
'17:53.558',0.280
'17:53.561',0.245
'17:53.564',0.245
'17:53.567',0.250
'17:53.569',0.240
'17:53.572',0.225
'17:53.575',0.220
'17:53.578',0.215
'17:53.581',0.220
'17:53.583',0.220
'17:53.586',0.200
'17:53.589',0.185
'17:53.592',0.155
'17:53.594',0.160
'17:53.597',0.180
'17:53.600',0.185
'17:53.603',0.185
'17:53.606',0.170
'17:53.608',0.145
'17:53.611',0.140
'17:53.614',0.150
'17:53.617',0.150
'17:53.619',0.155
'17:53.622',0.140
'17:53.625',0.140
'17:53.628',0.130
'17:53.631',0.140
'17:53.633',0.160
'17:53.636',0.180
'17:53.639',0.160
'17:53.642',0.155
'17:53.644',0.150
'17:53.647',0.165
'17:53.650',0.170
'17:53.653',0.175
'17:53.656',0.155
'17:53.658',0.155
'17:53.661',0.145
'17:53.664',0.165
'17:53.667',0.175
'17:53.669',0.160
'17:53.672',0.160
'17:53.675',0.150
'17:53.678',0.150
'17:53.681',0.150
'17:53.683',0.170
'17:53.686',0.170
'17:53.689',0.150
'17:53.692',0.135
'17:53.694',0.125
'17:53.697',0.135
'17:53.700',0.145
'17:53.703',0.140
'17:53.706',0.135
'17:53.708',0.120
'17:53.711',0.120
'17:53.714',0.135
'17:53.717',0.135
'17:53.719',0.140
'17:53.722',0.140
'17:53.725',0.120
'17:53.728',0.115
'17:53.731',0.120
'17:53.733',0.145
'17:53.736',0.140
'17:53.739',0.120
'17:53.742',0.100
'17:53.744',0.105
'17:53.747',0.115
'17:53.750',0.135
'17:53.753',0.145
'17:53.756',0.115
'17:53.758',0.105
'17:53.761',0.100
'17:53.764',0.105
'17:53.767',0.130
'17:53.769',0.120
'17:53.772',0.115
'17:53.775',0.115
'17:53.778',0.130
'17:53.781',0.120
'17:53.783',0.130
'17:53.786',0.130
'17:53.789',0.125
'17:53.792',0.115
'17:53.794',0.105
'17:53.797',0.110
'17:53.800',0.130
'17:53.803',0.130
'17:53.806',0.105
'17:53.808',0.100
'17:53.811',0.100
'17:53.814',0.110
'17:53.817',0.125
'17:53.819',0.135
'17:53.822',0.125
'17:53.825',0.110
'17:53.828',0.110
'17:53.831',0.120
'17:53.833',0.120
'17:53.836',0.120
'17:53.839',0.115
'17:53.842',0.100
'17:53.844',0.090
'17:53.847',0.095
'17:53.850',0.105
'17:53.853',0.115
'17:53.856',0.100
'17:53.858',0.100
'17:53.861',0.095
'17:53.864',0.095
'17:53.867',0.100
'17:53.869',0.100
'17:53.872',0.090
'17:53.875',0.075
'17:53.878',0.085
'17:53.881',0.090
'17:53.883',0.095
'17:53.886',0.105
'17:53.889',0.085
'17:53.892',0.070
'17:53.894',0.065
'17:53.897',0.075
'17:53.900',0.070
'17:53.903',0.080
'17:53.906',0.065
'17:53.908',0.055
'17:53.911',0.060
'17:53.914',0.065
'17:53.917',0.085
'17:53.919',0.090
'17:53.922',0.075
'17:53.925',0.055
'17:53.928',0.050
'17:53.931',0.055
'17:53.933',0.070
'17:53.936',0.070
'17:53.939',0.065
'17:53.942',0.040
'17:53.944',0.035
'17:53.947',0.040
'17:53.950',0.065
'17:53.953',0.070
'17:53.956',0.055
'17:53.958',0.040
'17:53.961',0.040
'17:53.964',0.045
'17:53.967',0.065
'17:53.969',0.060
'17:53.972',0.055
'17:53.975',0.035
'17:53.978',0.040
'17:53.981',0.055
'17:53.983',0.065
'17:53.986',0.060
'17:53.989',0.050
'17:53.992',0.035
'17:53.994',0.035
'17:53.997',0.035
'17:54.000',0.065
'17:54.003',0.055
'17:54.006',0.045
'17:54.008',0.030
'17:54.011',0.025
'17:54.014',0.035
'17:54.017',0.035
'17:54.019',0.045
'17:54.022',0.035
'17:54.025',0.015
'17:54.028',0.010
'17:54.031',0.030
'17:54.033',0.045
'17:54.036',0.040
'17:54.039',0.030
'17:54.042',0.015
'17:54.044',0.015
'17:54.047',0.015
'17:54.050',0.030
'17:54.053',0.030
'17:54.056',0.020
'17:54.058',0.005
'17:54.061',0.005
'17:54.064',0.020
'17:54.067',0.030
'17:54.069',0.030
'17:54.072',0.020
'17:54.075',0.015
'17:54.078',0.005
'17:54.081',0.010
'17:54.083',0.020
'17:54.086',0.035
'17:54.089',0.020
'17:54.092',-0.005
'17:54.094',0.005
'17:54.097',0.010
'17:54.100',0.025
'17:54.103',0.025
'17:54.106',0.015
'17:54.108',0.000
'17:54.111',-0.005
'17:54.114',0.015
'17:54.117',0.020
'17:54.119',0.015
'17:54.122',0.005
'17:54.125',-0.010
'17:54.128',0.000
'17:54.131',0.010
'17:54.133',0.035
'17:54.136',0.030
'17:54.139',0.020
'17:54.142',0.005
'17:54.144',0.005
'17:54.147',0.015
'17:54.150',0.015
'17:54.153',0.015
'17:54.156',0.005
'17:54.158',0.000
'17:54.161',0.000
'17:54.164',0.010
'17:54.167',0.025
'17:54.169',0.020
'17:54.172',0.005
'17:54.175',0.000
'17:54.178',0.000
'17:54.181',0.000
'17:54.183',0.015
'17:54.186',0.005
'17:54.189',0.005
'17:54.192',-0.010
'17:54.194',-0.010
'17:54.197',0.000
'17:54.200',0.020
'17:54.203',0.015
'17:54.206',0.010
'17:54.208',-0.005
'17:54.211',0.000
'17:54.214',0.005
'17:54.217',0.015
'17:54.219',0.015
'17:54.222',0.000
'17:54.225',0.000
'17:54.228',-0.005
'17:54.231',0.000
'17:54.233',0.015
'17:54.236',0.015
'17:54.239',0.010
'17:54.242',-0.005
'17:54.244',-0.005
'17:54.247',-0.005
'17:54.250',0.015
'17:54.253',0.010
'17:54.256',0.030
'17:54.258',0.000
'17:54.261',0.000
'17:54.264',0.015
'17:54.267',0.010
'17:54.269',0.020
'17:54.272',0.000
'17:54.275',-0.035
'17:54.278',-0.035
'17:54.281',-0.045
'17:54.283',-0.055
'17:54.286',-0.050
'17:54.289',-0.070
'17:54.292',-0.065
'17:54.294',-0.050
'17:54.297',-0.050
'17:54.300',-0.045
'17:54.303',-0.035
'17:54.306',-0.055
'17:54.308',-0.070
'17:54.311',-0.070
'17:54.314',-0.065
'17:54.317',-0.030
'17:54.319',-0.035
'17:54.322',-0.040
'17:54.325',-0.055
'17:54.328',-0.040
'17:54.331',-0.010
'17:54.333',-0.005
'17:54.336',-0.015
'17:54.339',-0.025
'17:54.342',-0.030
'17:54.344',-0.020
'17:54.347',-0.020
'17:54.350',0.000
'17:54.353',0.000
'17:54.356',-0.005
'17:54.358',-0.010
'17:54.361',-0.020
'17:54.364',-0.020
'17:54.367',-0.005
'17:54.369',0.000
'17:54.372',-0.015
'17:54.375',-0.035
'17:54.378',-0.040
'17:54.381',-0.035
'17:54.383',-0.025
'17:54.386',-0.035
'17:54.389',-0.065
'17:54.392',-0.080
'17:54.394',-0.085
'17:54.397',-0.110
'17:54.400',-0.160
'17:54.403',-0.240
'17:54.406',-0.315
'17:54.408',-0.360
'17:54.411',-0.360
'17:54.414',-0.335
'17:54.417',-0.315
'17:54.419',-0.295
'17:54.422',-0.250
'17:54.425',-0.180
'17:54.428',-0.085
'17:54.431',0.020
'17:54.433',0.080
'17:54.436',0.055
'17:54.439',-0.005
'17:54.442',-0.050
'17:54.444',-0.065
'17:54.447',-0.035
'17:54.450',0.005
'17:54.453',0.010
'17:54.456',0.000
'17:54.458',-0.010
'17:54.461',-0.020
'17:54.464',-0.005
'17:54.467',0.000
'17:54.469',0.020
'17:54.472',0.005
'17:54.475',0.000
'17:54.478',-0.015
'17:54.481',-0.005
'17:54.483',0.005
'17:54.486',0.005
'17:54.489',-0.005
'17:54.492',-0.025
'17:54.494',-0.020
'17:54.497',-0.020
'17:54.500',-0.010
'17:54.503',0.000
'17:54.506',-0.010
'17:54.508',-0.020
'17:54.511',-0.030
'17:54.514',-0.005
'17:54.517',-0.005
'17:54.519',-0.010
'17:54.522',-0.020
'17:54.525',-0.030
'17:54.528',-0.035
'17:54.531',-0.020
'17:54.533',-0.020
'17:54.536',-0.010
'17:54.539',-0.025
'17:54.542',-0.045
'17:54.544',-0.040
'17:54.547',-0.035
'17:54.550',-0.025
'17:54.553',-0.015
'17:54.556',-0.030
'17:54.558',-0.050
'17:54.561',-0.060
'17:54.564',-0.060
'17:54.567',-0.065
'17:54.569',-0.060
'17:54.572',-0.085
'17:54.575',-0.100
'17:54.578',-0.095
'17:54.581',-0.095
'17:54.583',-0.085
'17:54.586',-0.090
'17:54.589',-0.105
'17:54.592',-0.125
'17:54.594',-0.135
'17:54.597',-0.135
'17:54.600',-0.125
'17:54.603',-0.130
'17:54.606',-0.130
'17:54.608',-0.170
'17:54.611',-0.175
'17:54.614',-0.175
'17:54.617',-0.170
'17:54.619',-0.185
'17:54.622',-0.205
'17:54.625',-0.215
'17:54.628',-0.230
'17:54.631',-0.230
'17:54.633',-0.220
'17:54.636',-0.205
'17:54.639',-0.225
'17:54.642',-0.250
'17:54.644',-0.260
'17:54.647',-0.255
'17:54.650',-0.245
'17:54.653',-0.255
'17:54.656',-0.275
'17:54.658',-0.280
'17:54.661',-0.270
'17:54.664',-0.265
'17:54.667',-0.240
'17:54.669',-0.260
'17:54.672',-0.270
'17:54.675',-0.275
'17:54.678',-0.255
'17:54.681',-0.245
'17:54.683',-0.230
'17:54.686',-0.210
'17:54.689',-0.210
'17:54.692',-0.210
'17:54.694',-0.195
'17:54.697',-0.180
'17:54.700',-0.140
'17:54.703',-0.120
'17:54.706',-0.120
'17:54.708',-0.115
'17:54.711',-0.095
'17:54.714',-0.080
'17:54.717',-0.065
'17:54.719',-0.055
'17:54.722',-0.040
'17:54.725',-0.040
'17:54.728',-0.035
'17:54.731',-0.030
'17:54.733',0.000
'17:54.736',0.010
'17:54.739',0.010
'17:54.742',0.015
'17:54.744',0.010
'17:54.747',0.025
'17:54.750',0.040
'17:54.753',0.045
'17:54.756',0.020
'17:54.758',0.020
'17:54.761',0.015
'17:54.764',0.035
'17:54.767',0.040
'17:54.769',0.050
'17:54.772',0.030
'17:54.775',0.030
'17:54.778',0.020
'17:54.781',0.035
'17:54.783',0.050
'17:54.786',0.050
'17:54.789',0.035
'17:54.792',0.030
'17:54.794',0.025
'17:54.797',0.035
'17:54.800',0.040
'17:54.803',0.055
'17:54.806',0.040
'17:54.808',0.035
'17:54.811',0.020
'17:54.814',0.025
'17:54.817',0.055
'17:54.819',0.060
'17:54.822',0.045
'17:54.825',0.030
'17:54.828',0.020
'17:54.831',0.035
'17:54.833',0.045
'17:54.836',0.050
'17:54.839',0.035
'17:54.842',0.020
'17:54.844',0.020
'17:54.847',0.025
'17:54.850',0.045
'17:54.853',0.045
'17:54.856',0.040
'17:54.858',0.025
'17:54.861',0.020
'17:54.864',0.035
'17:54.867',0.040
'17:54.869',0.040
'17:54.872',0.040
'17:54.875',0.030
'17:54.878',0.030
'17:54.881',0.045
'17:54.883',0.050
'17:54.886',0.055
'17:54.889',0.035
'17:54.892',0.020
'17:54.894',0.030
'17:54.897',0.025
'17:54.900',0.030
'17:54.903',0.030
'17:54.906',0.015
'17:54.908',-0.015
'17:54.911',-0.010
'17:54.914',0.010
'17:54.917',0.020
'17:54.919',0.025
'17:54.922',0.020
'17:54.925',0.010
'17:54.928',-0.010
'17:54.931',-0.025
'17:54.933',-0.055
'17:54.936',-0.135
'17:54.939',-0.185
'17:54.942',-0.260
'17:54.944',-0.315
'17:54.947',-0.375
'17:54.950',-0.435
'17:54.953',-0.545
'17:54.956',-0.630
'17:54.958',-0.705
'17:54.961',-0.755
'17:54.964',-0.790
'17:54.967',-0.810
'17:54.969',-0.835
'17:54.972',-0.885
'17:54.975',-0.925
'17:54.978',-0.965
'17:54.981',-1.000
'17:54.983',-1.015
'17:54.986',-1.050
'17:54.989',-1.100
'17:54.992',-1.145
'17:54.994',-1.150
'17:54.997',-1.135
'17:55.000',-1.080
'17:55.003',-1.025
'17:55.006',-0.955
'17:55.008',-0.895
'17:55.011',-0.840
'17:55.014',-0.760
'17:55.017',-0.675
'17:55.019',-0.565
'17:55.022',-0.520
'17:55.025',-0.470
'17:55.028',-0.445
'17:55.031',-0.415
'17:55.033',-0.390
'17:55.036',-0.375
'17:55.039',-0.345
'17:55.042',-0.340
'17:55.044',-0.335
'17:55.047',-0.330
'17:55.050',-0.300
'17:55.053',-0.270
'17:55.056',-0.240
'17:55.058',-0.205
'17:55.061',-0.135
'17:55.064',-0.040
'17:55.067',0.045
'17:55.069',0.115
'17:55.072',0.155
'17:55.075',0.175
'17:55.078',0.200
'17:55.081',0.220
'17:55.083',0.250
'17:55.086',0.270
'17:55.089',0.265
'17:55.092',0.265
'17:55.094',0.275
'17:55.097',0.290
'17:55.100',0.315
'17:55.103',0.340
'17:55.106',0.325
'17:55.108',0.320
'17:55.111',0.325
'17:55.114',0.355
'17:55.117',0.375
'17:55.119',0.385
'17:55.122',0.375
'17:55.125',0.370
'17:55.128',0.385
'17:55.131',0.415
'17:55.133',0.420
'17:55.136',0.445
'17:55.139',0.450
'17:55.142',0.440
'17:55.144',0.445
'17:55.147',0.460
'17:55.150',0.475
'17:55.153',0.505
'17:55.156',0.500
'17:55.158',0.505
'17:55.161',0.510
'17:55.164',0.540
'17:55.167',0.545
'17:55.169',0.560
'17:55.172',0.560
'17:55.175',0.545
'17:55.178',0.555
'17:55.181',0.570
'17:55.183',0.575
'17:55.186',0.580
'17:55.189',0.560
'17:55.192',0.530
'17:55.194',0.530
'17:55.197',0.545
'17:55.200',0.565
'17:55.203',0.575
'17:55.206',0.555
'17:55.208',0.540
'17:55.211',0.530
'17:55.214',0.535
'17:55.217',0.530
'17:55.219',0.520
'17:55.222',0.500
'17:55.225',0.475
'17:55.228',0.460
'17:55.231',0.430
'17:55.233',0.430
'17:55.236',0.420
'17:55.239',0.380
'17:55.242',0.350
'17:55.244',0.315
'17:55.247',0.310
'17:55.250',0.285
'17:55.253',0.270
'17:55.256',0.245
'17:55.258',0.215
'17:55.261',0.185
'17:55.264',0.185
'17:55.267',0.175
'17:55.269',0.155
'17:55.272',0.140
'17:55.275',0.120
'17:55.278',0.085
'17:55.281',0.095
'17:55.283',0.105
'17:55.286',0.100
'17:55.289',0.075
'17:55.292',0.065
'17:55.294',0.050
'17:55.297',0.050
'17:55.300',0.065
'17:55.303',0.070
'17:55.306',0.065
'17:55.308',0.050
'17:55.311',0.060
'17:55.314',0.070
'17:55.317',0.075
'17:55.319',0.090
'17:55.322',0.070
'17:55.325',0.050
'17:55.328',0.050
'17:55.331',0.065
'17:55.333',0.075
'17:55.336',0.080
'17:55.339',0.075
'17:55.342',0.065
'17:55.344',0.070
'17:55.347',0.060
'17:55.350',0.075
'17:55.353',0.085
'17:55.356',0.085
'17:55.358',0.065
'17:55.361',0.065
'17:55.364',0.075
'17:55.367',0.095
'17:55.369',0.080
'17:55.372',0.080
'17:55.375',0.075
'17:55.378',0.075
'17:55.381',0.075
'17:55.383',0.090
'17:55.386',0.095
'17:55.389',0.085
'17:55.392',0.070
'17:55.394',0.065
'17:55.397',0.085
'17:55.400',0.105
'17:55.403',0.115
'17:55.406',0.090
'17:55.408',0.065
'17:55.411',0.060
'17:55.414',0.055
'17:55.417',0.090
'17:55.419',0.085
'17:55.422',0.075
'17:55.425',0.065
'17:55.428',0.060
'17:55.431',0.065
'17:55.433',0.090
'17:55.436',0.100
'17:55.439',0.080
'17:55.442',0.080
'17:55.444',0.065
'17:55.447',0.070
'17:55.450',0.080
'17:55.453',0.090
'17:55.456',0.070
'17:55.458',0.065
'17:55.461',0.060
'17:55.464',0.070
'17:55.467',0.080
'17:55.469',0.085
'17:55.472',0.065
'17:55.475',0.040
'17:55.478',0.055
'17:55.481',0.065
'17:55.483',0.070
'17:55.486',0.060
'17:55.489',0.060
'17:55.492',0.040
'17:55.494',0.045
'17:55.497',0.050
'17:55.500',0.070
'17:55.503',0.075
'17:55.506',0.060
'17:55.508',0.045
'17:55.511',0.030
'17:55.514',0.045
'17:55.517',0.065
'17:55.519',0.055
'17:55.522',0.040
'17:55.525',0.035
'17:55.528',0.045
'17:55.531',0.050
'17:55.533',0.060
'17:55.536',0.070
'17:55.539',0.065
'17:55.542',0.050
'17:55.544',0.025
'17:55.547',0.015
'17:55.550',0.035
'17:55.553',0.035
'17:55.556',0.040
'17:55.558',0.045
'17:55.561',0.040
'17:55.564',0.030
'17:55.567',0.040
'17:55.569',0.015
'17:55.572',0.005
'17:55.575',-0.015
'17:55.578',-0.025
'17:55.581',-0.025
'17:55.583',-0.015
'17:55.586',-0.020
'17:55.589',-0.040
'17:55.592',-0.050
'17:55.594',-0.035
'17:55.597',-0.020
'17:55.600',-0.025
'17:55.603',-0.050
'17:55.606',-0.055
'17:55.608',-0.055
'17:55.611',-0.045
'17:55.614',-0.015
'17:55.617',0.010
'17:55.619',0.010
'17:55.622',0.000
'17:55.625',0.000
'17:55.628',-0.005
'17:55.631',0.005
'17:55.633',0.010
'17:55.636',0.030
'17:55.639',0.005
'17:55.642',-0.005
'17:55.644',-0.005
'17:55.647',0.010
'17:55.650',0.035
'17:55.653',0.015
'17:55.656',0.020
'17:55.658',0.000
'17:55.661',-0.015
'17:55.664',-0.005
'17:55.667',0.005
'17:55.669',0.020
'17:55.672',0.015
'17:55.675',-0.015
'17:55.678',-0.010
'17:55.681',-0.015
'17:55.683',-0.005
'17:55.686',-0.005
'17:55.689',-0.025
'17:55.692',-0.045
'17:55.694',-0.055
'17:55.697',-0.045
'17:55.700',-0.065
'17:55.703',-0.130
'17:55.706',-0.230
'17:55.708',-0.335
'17:55.711',-0.380
'17:55.714',-0.390
'17:55.717',-0.375
'17:55.719',-0.390
'17:55.722',-0.385
'17:55.725',-0.340
'17:55.728',-0.220
'17:55.731',-0.115
'17:55.733',-0.030
'17:55.736',0.005
'17:55.739',-0.020
'17:55.742',-0.050
'17:55.744',-0.075
'17:55.747',-0.055
'17:55.750',-0.020
'17:55.753',0.000
'17:55.756',0.015
'17:55.758',0.000
'17:55.761',0.000
'17:55.764',0.010
'17:55.767',0.025
'17:55.769',0.035
'17:55.772',0.030
'17:55.775',0.020
'17:55.778',0.015
'17:55.781',0.015
'17:55.783',0.025
'17:55.786',0.025
'17:55.789',0.015
'17:55.792',-0.005
'17:55.794',-0.020
'17:55.797',-0.010
'17:55.800',0.005
'17:55.803',0.010
'17:55.806',-0.005
'17:55.808',-0.005
'17:55.811',-0.010
'17:55.814',-0.010
'17:55.817',0.000
'17:55.819',0.010
'17:55.822',0.000
'17:55.825',-0.020
'17:55.828',-0.030
'17:55.831',-0.015
'17:55.833',0.005
'17:55.836',0.000
'17:55.839',-0.010
'17:55.842',-0.030
'17:55.844',-0.040
'17:55.847',-0.030
'17:55.850',-0.015
'17:55.853',-0.015
'17:55.856',-0.030
'17:55.858',-0.055
'17:55.861',-0.065
'17:55.864',-0.060
'17:55.867',-0.055
'17:55.869',-0.055
'17:55.872',-0.080
'17:55.875',-0.095
'17:55.878',-0.110
'17:55.881',-0.115
'17:55.883',-0.090
'17:55.886',-0.115
'17:55.889',-0.120
'17:55.892',-0.150
'17:55.894',-0.160
'17:55.897',-0.175
'17:55.900',-0.175
'17:55.903',-0.180
'17:55.906',-0.210
'17:55.908',-0.235
'17:55.911',-0.260
'17:55.914',-0.275
'17:55.917',-0.260
'17:55.919',-0.275
'17:55.922',-0.290
'17:55.925',-0.315
'17:55.928',-0.340
'17:55.931',-0.325
'17:55.933',-0.325
'17:55.936',-0.325
'17:55.939',-0.335
'17:55.942',-0.355
'17:55.944',-0.365
'17:55.947',-0.355
'17:55.950',-0.350
'17:55.953',-0.325
'17:55.956',-0.310
'17:55.958',-0.315
'17:55.961',-0.305
'17:55.964',-0.285
'17:55.967',-0.255
'17:55.969',-0.225
'17:55.972',-0.215
'17:55.975',-0.195
'17:55.978',-0.185
'17:55.981',-0.155
'17:55.983',-0.125
'17:55.986',-0.100
'17:55.989',-0.095
'17:55.992',-0.070
'17:55.994',-0.045
'17:55.997',-0.035
'17:56.000',0.000
'17:56.003',0.005
'17:56.006',-0.010
'17:56.008',-0.005
'17:56.011',0.000
'17:56.014',0.015
'17:56.017',0.050
'17:56.019',0.070
'17:56.022',0.050
'17:56.025',0.040
'17:56.028',0.025
'17:56.031',0.030
'17:56.033',0.050
'17:56.036',0.055
'17:56.039',0.055
'17:56.042',0.040
'17:56.044',0.050
'17:56.047',0.055
'17:56.050',0.095
'17:56.053',0.090
'17:56.056',0.070
'17:56.058',0.050
'17:56.061',0.040
'17:56.064',0.050
'17:56.067',0.075
'17:56.069',0.060
'17:56.072',0.065
'17:56.075',0.060
'17:56.078',0.040
'17:56.081',0.055
'17:56.083',0.060
'17:56.086',0.065
'17:56.089',0.055
'17:56.092',0.050
'17:56.094',0.035
'17:56.097',0.050
'17:56.100',0.060
'17:56.103',0.075
'17:56.106',0.045
'17:56.108',0.035
'17:56.111',0.030
'17:56.114',0.040
'17:56.117',0.060
'17:56.119',0.045
'17:56.122',0.040
'17:56.125',0.035
'17:56.128',0.030
'17:56.131',0.040
'17:56.133',0.045
'17:56.136',0.055
'17:56.139',0.035
'17:56.142',0.015
'17:56.144',0.000
'17:56.147',0.000
'17:56.150',0.020
'17:56.153',0.025
'17:56.156',0.025
'17:56.158',0.010
'17:56.161',0.015
'17:56.164',0.025
'17:56.167',0.045
'17:56.169',0.050
'17:56.172',0.045
'17:56.175',0.015
'17:56.178',0.000
'17:56.181',0.005
'17:56.183',0.015
'17:56.186',0.015
'17:56.189',-0.005
'17:56.192',-0.045
'17:56.194',-0.060
'17:56.197',-0.050
'17:56.200',-0.030
'17:56.203',-0.050
'17:56.206',-0.045
'17:56.208',-0.055
'17:56.211',-0.065
'17:56.214',-0.055
'17:56.217',-0.030
'17:56.219',-0.030
'17:56.222',-0.030
'17:56.225',-0.035
'17:56.228',-0.025
'17:56.231',-0.005
'17:56.233',0.025
'17:56.236',0.015
'17:56.239',0.000
'17:56.242',-0.005
'17:56.244',-0.005
'17:56.247',0.005
'17:56.250',0.025
'17:56.253',0.030
'17:56.256',0.030
'17:56.258',0.020
'17:56.261',0.010
'17:56.264',0.005
'17:56.267',0.005
'17:56.269',0.015
'17:56.272',0.005
'17:56.275',0.000
'17:56.278',-0.005
'17:56.281',0.005
'17:56.283',0.020
'17:56.286',0.010
'17:56.289',0.005
'17:56.292',0.000
'17:56.294',-0.005
'17:56.297',0.010
'17:56.300',0.020
'17:56.303',0.005
'17:56.306',-0.010
'17:56.308',-0.015
'17:56.311',-0.015
'17:56.314',-0.040
'17:56.317',-0.075
'17:56.319',-0.150
'17:56.322',-0.255
'17:56.325',-0.340
'17:56.328',-0.370
'17:56.331',-0.365
'17:56.333',-0.335
'17:56.336',-0.335
'17:56.339',-0.305
'17:56.342',-0.225
'17:56.344',-0.110
'17:56.347',0.000
'17:56.350',0.085
'17:56.353',0.075
'17:56.356',0.020
'17:56.358',-0.035
'17:56.361',-0.055
'17:56.364',-0.045
'17:56.367',-0.005
'17:56.369',0.020
'17:56.372',0.005
'17:56.375',-0.005
'17:56.378',-0.010
'17:56.381',0.010
'17:56.383',0.030
'17:56.386',0.045
'17:56.389',0.035
'17:56.392',0.015
'17:56.394',0.020
'17:56.397',0.020
'17:56.400',0.035
'17:56.403',0.035
'17:56.406',0.030
'17:56.408',0.020
'17:56.411',0.010
'17:56.414',0.020
'17:56.417',0.045
'17:56.419',0.040
'17:56.422',0.025
'17:56.425',0.010
'17:56.428',0.005
'17:56.431',0.015
'17:56.433',0.025
'17:56.436',0.015
'17:56.439',0.005
'17:56.442',-0.005
'17:56.444',-0.020
'17:56.447',-0.020
'17:56.450',-0.015
'17:56.453',-0.015
'17:56.456',-0.025
'17:56.458',-0.040
'17:56.461',-0.055
'17:56.464',-0.050
'17:56.467',-0.040
'17:56.469',-0.055
'17:56.472',-0.055
'17:56.475',-0.075
'17:56.478',-0.095
'17:56.481',-0.080
'17:56.483',-0.080
'17:56.486',-0.095
'17:56.489',-0.105
'17:56.492',-0.135
'17:56.494',-0.175
'17:56.497',-0.165
'17:56.500',-0.160
'17:56.503',-0.165
'17:56.506',-0.190
'17:56.508',-0.220
'17:56.511',-0.235
'17:56.514',-0.235
'17:56.517',-0.220
'17:56.519',-0.240
'17:56.522',-0.260
'17:56.525',-0.280
'17:56.528',-0.300
'17:56.531',-0.290
'17:56.533',-0.300
'17:56.536',-0.290
'17:56.539',-0.305
'17:56.542',-0.310
'17:56.544',-0.315
'17:56.547',-0.300
'17:56.550',-0.290
'17:56.553',-0.285
'17:56.556',-0.285
'17:56.558',-0.285
'17:56.561',-0.275
'17:56.564',-0.250
'17:56.567',-0.210
'17:56.569',-0.185
'17:56.572',-0.165
'17:56.575',-0.170
'17:56.578',-0.145
'17:56.581',-0.115
'17:56.583',-0.085
'17:56.586',-0.055
'17:56.589',-0.040
'17:56.592',-0.035
'17:56.594',-0.025
'17:56.597',-0.005
'17:56.600',0.030
'17:56.603',0.030
'17:56.606',0.045
'17:56.608',0.040
'17:56.611',0.040
'17:56.614',0.050
'17:56.617',0.075
'17:56.619',0.075
'17:56.622',0.075
'17:56.625',0.070
'17:56.628',0.075
'17:56.631',0.070
'17:56.633',0.105
'17:56.636',0.085
'17:56.639',0.080
'17:56.642',0.060
'17:56.644',0.060
'17:56.647',0.085
'17:56.650',0.090
'17:56.653',0.095
'17:56.656',0.080
'17:56.658',0.080
'17:56.661',0.075
'17:56.664',0.085
'17:56.667',0.105
'17:56.669',0.095
'17:56.672',0.105
'17:56.675',0.085
'17:56.678',0.090
'17:56.681',0.100
'17:56.683',0.100
'17:56.686',0.105
'17:56.689',0.090
'17:56.692',0.065
'17:56.694',0.070
'17:56.697',0.070
'17:56.700',0.090
'17:56.703',0.085
'17:56.706',0.080
'17:56.708',0.075
'17:56.711',0.055
'17:56.714',0.055
'17:56.717',0.080
'17:56.719',0.075
'17:56.722',0.075
'17:56.725',0.050
'17:56.728',0.060
'17:56.731',0.060
'17:56.733',0.075
'17:56.736',0.080
'17:56.739',0.080
'17:56.742',0.065
'17:56.744',0.045
'17:56.747',0.050
'17:56.750',0.075
'17:56.753',0.070
'17:56.756',0.055
'17:56.758',0.055
'17:56.761',0.045
'17:56.764',0.060
'17:56.767',0.070
'17:56.769',0.060
'17:56.772',0.065
'17:56.775',0.050
'17:56.778',0.045
'17:56.781',0.045
'17:56.783',0.050
'17:56.786',0.050
'17:56.789',0.030
'17:56.792',0.025
'17:56.794',0.010
'17:56.797',0.000
'17:56.800',0.010
'17:56.803',0.005
'17:56.806',0.000
'17:56.808',-0.020
'17:56.811',-0.005
'17:56.814',0.015
'17:56.817',0.020
'17:56.819',0.040
'17:56.822',0.050
'17:56.825',0.055
'17:56.828',0.065
'17:56.831',0.065
'17:56.833',0.055
'17:56.836',0.005
'17:56.839',-0.070
'17:56.842',-0.145
'17:56.844',-0.235
'17:56.847',-0.310
'17:56.850',-0.380
'17:56.853',-0.470
'17:56.856',-0.570
'17:56.858',-0.650
'17:56.861',-0.715
'17:56.864',-0.745
'17:56.867',-0.785
'17:56.869',-0.820
'17:56.872',-0.860
'17:56.875',-0.915
'17:56.878',-0.960
'17:56.881',-0.990
'17:56.883',-1.020
'17:56.886',-1.065
'17:56.889',-1.120
'17:56.892',-1.155
'17:56.894',-1.155
'17:56.897',-1.120
'17:56.900',-1.055
'17:56.903',-0.980
'17:56.906',-0.900
'17:56.908',-0.845
'17:56.911',-0.815
'17:56.914',-0.755
'17:56.917',-0.725
'17:56.919',-0.690
'17:56.922',-0.675
'17:56.925',-0.650
'17:56.928',-0.615
'17:56.931',-0.565
'17:56.933',-0.500
'17:56.936',-0.455
'17:56.939',-0.395
'17:56.942',-0.310
'17:56.944',-0.205
'17:56.947',-0.095
'17:56.950',-0.005
'17:56.953',0.055
'17:56.956',0.105
'17:56.958',0.120
'17:56.961',0.140
'17:56.964',0.175
'17:56.967',0.190
'17:56.969',0.210
'17:56.972',0.210
'17:56.975',0.225
'17:56.978',0.225
'17:56.981',0.240
'17:56.983',0.270
'17:56.986',0.275
'17:56.989',0.285
'17:56.992',0.270
'17:56.994',0.280
'17:56.997',0.295
'17:57.000',0.310
'17:57.003',0.320
'17:57.006',0.325
'17:57.008',0.310
'17:57.011',0.315
'17:57.014',0.335
'17:57.017',0.350
'17:57.019',0.365
'17:57.022',0.375
'17:57.025',0.365
'17:57.028',0.370
'17:57.031',0.390
'17:57.033',0.405
'17:57.036',0.410
'17:57.039',0.425
'17:57.042',0.400
'17:57.044',0.405
'17:57.047',0.415
'17:57.050',0.445
'17:57.053',0.460
'17:57.056',0.460
'17:57.058',0.460
'17:57.061',0.455
'17:57.064',0.475
'17:57.067',0.485
'17:57.069',0.500
'17:57.072',0.500
'17:57.075',0.485
'17:57.078',0.490
'17:57.081',0.505
'17:57.083',0.505
'17:57.086',0.495
'17:57.089',0.495
'17:57.092',0.460
'17:57.094',0.465
'17:57.097',0.460
'17:57.100',0.465
'17:57.103',0.450
'17:57.106',0.450
'17:57.108',0.425
'17:57.111',0.395
'17:57.114',0.405
'17:57.117',0.385
'17:57.119',0.385
'17:57.122',0.360
'17:57.125',0.320
'17:57.128',0.290
'17:57.131',0.285
'17:57.133',0.270
'17:57.136',0.255
'17:57.139',0.220
'17:57.142',0.195
'17:57.144',0.160
'17:57.147',0.150
'17:57.150',0.160
'17:57.153',0.135
'17:57.156',0.120
'17:57.158',0.090
'17:57.161',0.065
'17:57.164',0.075
'17:57.167',0.070
'17:57.169',0.075
'17:57.172',0.060
'17:57.175',0.040
'17:57.178',0.025
'17:57.181',0.020
'17:57.183',0.035
'17:57.186',0.050
'17:57.189',0.045
'17:57.192',0.030
'17:57.194',0.020
'17:57.197',0.030
'17:57.200',0.045
'17:57.203',0.055
'17:57.206',0.050
'17:57.208',0.035
'17:57.211',0.030
'17:57.214',0.040
'17:57.217',0.040
'17:57.219',0.045
'17:57.222',0.045
'17:57.225',0.040
'17:57.228',0.040
'17:57.231',0.045
'17:57.233',0.055
'17:57.236',0.060
'17:57.239',0.060
'17:57.242',0.030
'17:57.244',0.025
'17:57.247',0.035
'17:57.250',0.055
'17:57.253',0.060
'17:57.256',0.050
'17:57.258',0.040
'17:57.261',0.035
'17:57.264',0.035
'17:57.267',0.065
'17:57.269',0.060
'17:57.272',0.065
'17:57.275',0.045
'17:57.278',0.055
'17:57.281',0.060
'17:57.283',0.060
'17:57.286',0.060
'17:57.289',0.060
'17:57.292',0.045
'17:57.294',0.035
'17:57.297',0.035
'17:57.300',0.060
'17:57.303',0.065
'17:57.306',0.055
'17:57.308',0.045
'17:57.311',0.035
'17:57.314',0.055
'17:57.317',0.070
'17:57.319',0.060
'17:57.322',0.045
'17:57.325',0.040
'17:57.328',0.030
'17:57.331',0.045
'17:57.333',0.050
'17:57.336',0.045
'17:57.339',0.045
'17:57.342',0.035
'17:57.344',0.050
'17:57.347',0.055
'17:57.350',0.065
'17:57.353',0.065
'17:57.356',0.050
'17:57.358',0.040
'17:57.361',0.015
'17:57.364',0.030
'17:57.367',0.040
'17:57.369',0.045
'17:57.372',0.040
'17:57.375',0.030
'17:57.378',0.025
'17:57.381',0.035
'17:57.383',0.045
'17:57.386',0.035
'17:57.389',0.030
'17:57.392',0.010
'17:57.394',0.015
'17:57.397',0.035
'17:57.400',0.050
'17:57.403',0.065
'17:57.406',0.050
'17:57.408',0.035
'17:57.411',0.010
'17:57.414',0.015
'17:57.417',0.010
'17:57.419',0.010
'17:57.422',0.000
'17:57.425',-0.015
'17:57.428',-0.020
'17:57.431',0.005
'17:57.433',0.015
'17:57.436',0.025
'17:57.439',0.030
'17:57.442',0.015
'17:57.444',-0.005
'17:57.447',0.010
'17:57.450',0.035
'17:57.453',0.040
'17:57.456',0.030
'17:57.458',0.005
'17:57.461',0.000
'17:57.464',-0.010
'17:57.467',-0.020
'17:57.469',-0.030
'17:57.472',-0.045
'17:57.475',-0.060
'17:57.478',-0.060
'17:57.481',-0.045
'17:57.483',-0.030
'17:57.486',-0.010
'17:57.489',0.000
'17:57.492',0.010
'17:57.494',-0.015
'17:57.497',-0.005
'17:57.500',-0.005
'17:57.503',-0.015
'17:57.506',-0.015
'17:57.508',-0.025
'17:57.511',-0.025
'17:57.514',-0.030
'17:57.517',0.000
'17:57.519',0.010
'17:57.522',0.000
'17:57.525',-0.015
'17:57.528',-0.020
'17:57.531',-0.015
'17:57.533',0.000
'17:57.536',-0.010
'17:57.539',-0.015
'17:57.542',-0.030
'17:57.544',-0.035
'17:57.547',-0.030
'17:57.550',-0.020
'17:57.553',-0.015
'17:57.556',-0.025
'17:57.558',-0.030
'17:57.561',-0.040
'17:57.564',-0.030
'17:57.567',-0.035
'17:57.569',-0.040
'17:57.572',-0.050
'17:57.575',-0.060
'17:57.578',-0.070
'17:57.581',-0.100
'17:57.583',-0.160
'17:57.586',-0.250
'17:57.589',-0.325
'17:57.592',-0.385
'17:57.594',-0.410
'17:57.597',-0.415
'17:57.600',-0.425
'17:57.603',-0.410
'17:57.606',-0.360
'17:57.608',-0.265
'17:57.611',-0.170
'17:57.614',-0.070
'17:57.617',-0.025
'17:57.619',-0.010
'17:57.622',-0.045
'17:57.625',-0.080
'17:57.628',-0.105
'17:57.631',-0.075
'17:57.633',-0.030
'17:57.636',-0.020
'17:57.639',-0.020
'17:57.642',-0.030
'17:57.644',-0.015
'17:57.647',-0.005
'17:57.650',0.005
'17:57.653',0.010
'17:57.656',0.020
'17:57.658',0.000
'17:57.661',0.000
'17:57.664',0.000
'17:57.667',0.010
'17:57.669',0.005
'17:57.672',0.000
'17:57.675',-0.005
'17:57.678',-0.005
'17:57.681',0.010
'17:57.683',0.020
'17:57.686',0.020
'17:57.689',0.005
'17:57.692',-0.025
'17:57.694',-0.025
'17:57.697',-0.010
'17:57.700',-0.010
'17:57.703',-0.010
'17:57.706',0.005
'17:57.708',-0.035
'17:57.711',-0.040
'17:57.714',-0.040
'17:57.717',-0.025
'17:57.719',-0.015
'17:57.722',-0.020
'17:57.725',-0.030
'17:57.728',-0.040
'17:57.731',-0.040
'17:57.733',-0.030
'17:57.736',-0.030
'17:57.739',-0.050
'17:57.742',-0.050
'17:57.744',-0.080
'17:57.747',-0.065
'17:57.750',-0.045
'17:57.753',-0.050
'17:57.756',-0.060
'17:57.758',-0.080
'17:57.761',-0.095
'17:57.764',-0.100
'17:57.767',-0.095
'17:57.769',-0.095
'17:57.772',-0.120
'17:57.775',-0.145
'17:57.778',-0.165
'17:57.781',-0.165
'17:57.783',-0.145
'17:57.786',-0.155
'17:57.789',-0.175
'17:57.792',-0.210
'17:57.794',-0.220
'17:57.797',-0.220
'17:57.800',-0.220
'17:57.803',-0.225
'17:57.806',-0.250
'17:57.808',-0.275
'17:57.811',-0.295
'17:57.814',-0.275
'17:57.817',-0.280
'17:57.819',-0.280
'17:57.822',-0.295
'17:57.825',-0.315
'17:57.828',-0.330
'17:57.831',-0.330
'17:57.833',-0.315
'17:57.836',-0.320
'17:57.839',-0.325
'17:57.842',-0.330
'17:57.844',-0.330
'17:57.847',-0.320
'17:57.850',-0.305
'17:57.853',-0.295
'17:57.856',-0.300
'17:57.858',-0.305
'17:57.861',-0.285
'17:57.864',-0.255
'17:57.867',-0.220
'17:57.869',-0.200
'17:57.872',-0.170
'17:57.875',-0.180
'17:57.878',-0.150
'17:57.881',-0.120
'17:57.883',-0.090
'17:57.886',-0.075
'17:57.889',-0.060
'17:57.892',-0.060
'17:57.894',-0.035
'17:57.897',-0.015
'17:57.900',0.015
'17:57.903',0.015
'17:57.906',0.025
'17:57.908',0.025
'17:57.911',0.020
'17:57.914',0.025
'17:57.917',0.055
'17:57.919',0.055
'17:57.922',0.050
'17:57.925',0.045
'17:57.928',0.045
'17:57.931',0.040
'17:57.933',0.055
'17:57.936',0.055
'17:57.939',0.050
'17:57.942',0.050
'17:57.944',0.040
'17:57.947',0.050
'17:57.950',0.060
'17:57.953',0.055
'17:57.956',0.065
'17:57.958',0.060
'17:57.961',0.045
'17:57.964',0.050
'17:57.967',0.075
'17:57.969',0.080
'17:57.972',0.070
'17:57.975',0.055
'17:57.978',0.055
'17:57.981',0.050
'17:57.983',0.065
'17:57.986',0.050
'17:57.989',0.070
'17:57.992',0.050
'17:57.994',0.050
'17:57.997',0.035
'17:58.000',0.065
'17:58.003',0.065
'17:58.006',0.060
'17:58.008',0.040
'17:58.011',0.050
'17:58.014',0.035
'17:58.017',0.055
'17:58.019',0.055
'17:58.022',0.045
'17:58.025',0.045
'17:58.028',0.015
'17:58.031',0.020
'17:58.033',0.030
'17:58.036',0.045
'17:58.039',0.025
'17:58.042',0.025
'17:58.044',0.010
'17:58.047',0.035
'17:58.050',0.035
'17:58.053',0.045
'17:58.056',0.055
'17:58.058',0.040
'17:58.061',0.040
'17:58.064',0.045
'17:58.067',0.050
'17:58.069',0.045
'17:58.072',0.050
'17:58.075',0.025
'17:58.078',0.025
'17:58.081',0.025
'17:58.083',0.050
'17:58.086',0.050
'17:58.089',0.040
'17:58.092',0.030
'17:58.094',0.025
'17:58.097',0.040
'17:58.100',0.040
'17:58.103',0.050
'17:58.106',0.045
'17:58.108',0.035
'17:58.111',0.030
'17:58.114',0.035
'17:58.117',0.045
'17:58.119',0.050
'17:58.122',0.035
'17:58.125',0.025
'17:58.128',0.010
'17:58.131',0.020
'17:58.133',0.035
'17:58.136',0.050
'17:58.139',0.050
'17:58.142',0.040
'17:58.144',0.035
'17:58.147',0.025
'17:58.150',0.045
'17:58.153',0.035
'17:58.156',0.030
'17:58.158',0.000
'17:58.161',-0.005
'17:58.164',-0.015
'17:58.167',-0.010
'17:58.169',-0.015
'17:58.172',-0.015
'17:58.175',-0.010
'17:58.178',-0.025
'17:58.181',-0.020
'17:58.183',-0.010
'17:58.186',-0.010
'17:58.189',-0.020
'17:58.192',-0.015
'17:58.194',-0.020
'17:58.197',0.000
'17:58.200',0.025
'17:58.203',0.020
'17:58.206',0.015
'17:58.208',0.015
'17:58.211',0.005
'17:58.214',0.010
'17:58.217',0.015
'17:58.219',0.020
'17:58.222',0.010
'17:58.225',0.005
'17:58.228',-0.010
'17:58.231',-0.010
'17:58.233',0.005
